1.0,0.345465749502182,0.1363355964422226,0.32757556438446045,0.3923504054546356,0.29981493949890137,0.2442936450242996,0.3066008687019348,0.26773595809936523,0.3010487258434296,0.2572486102581024,0.275138795375824,0.22702035307884216,0.24367673695087433,0.2979642152786255,0.25231337547302246,0.25539791584014887,0.21159778535366056,0.21961751580238345,0.3010487258434296,0.2819247245788574,0.2979642152786255,0.2850092649459839,0.28747686743736267,0.3115361034870148,0.3312769830226898,0.3695249855518341,0.37877851724624634,0.44787168502807617,0.4157927334308624,0.4639111757278442,0.4238124489784241,0.4386181235313416,0.3979025185108185,0.3818630576133728,0.3676742613315582,0.3300431966781616,0.3318938910961151,0.2954966127872467,0.3090684711933136,0.2467612624168396,0.2967303991317749,0.25416409969329834,0.2233189344406128,0.28871068358421326,0.26835286617279047,0.21776680648326877,0.26773595809936523,0.24737815558910367,0.2732881009578705,0.2338062971830368,0.27760642766952515,0.2603331208229065,0.26711905002593994,0.245527446269989,0.25354719161987305,0.27822330594062805,0.29426279664039606,0.27575570344924927,0.29734730720520014,0.275138795375824,0.2868599593639374,0.26403453946113586,0.28932756185531616,0.3325107991695404,0.32757556438446045,0.3090684711933136,0.36520665884017933,0.3608883321285248,0.4435533583164215,0.4182603359222412,0.39605182409286493,0.320789635181427,0.28871068358421326,0.31462061405181885,0.2566317021846771,0.25231337547302246,0.23072177171707156,0.17951881885528564,0.22393584251403809,0.172732874751091,0.2091301679611206,0.19185687601566315,0.2424429357051849,0.21838371455669403,0.17581740021705627,0.4441702663898468,0.8562615513801575,0.44046884775161743,0.0,0.15607649087905884,0.28439235687255854,0.2732881009578705,0.26465144753456116,0.2837754487991333,0.2924121022224426,0.2967303991317749,0.2985811233520508,0.2806909382343292,0.25478100776672363,0.32017272710800165,0.3571869134902954,0.0,0.0,0.0,0.0,0.0,0.0,0.0,0.0,0.0,0.0,0.0,0.0,0.0,0.0,0.0,0.0,0.0,0.0,0.0,0.0,0.0,0.0,0.0,0.0,0.0,0.0,0.0,0.0,0.0,0.0,0.0,0.0,0.0,0.0,0.0,0.0,0.0,0.0,0.0,0.0,0.0,0.0,0.0,0.0,0.0,0.0,0.0,0.0,0.0,0.0,0.0,0.0,0.0,0.0,0.0,0.0,0.0,0.0,0.0,0.0,0.0,0.0,0.0,0.0,0.0,0.0,0.0,0.0,0.0,0.0,0.0,0.0,0.0,0.0,0.0,0.0,0.0,0.0,0.0,0.0,0.0,0.0,0.0,0.0,0.0,0.0
0.9830136895179747,0.8536986112594604,0.45205479860305786,0.12712328135967255,0.02630136907100677,0.22356164455413816,0.2493150681257248,0.2690410912036896,0.27890411019325256,0.2558903992176056,0.30136987566947937,0.28219178318977356,0.3008219301700592,0.31013697385787964,0.2706849277019501,0.32273972034454346,0.307945191860199,0.32383561134338373,0.3232876658439636,0.2920548021793365,0.3205479383468628,0.31013697385787964,0.3221917748451233,0.3095890283584595,0.2947945296764374,0.34246575832366943,0.32931506633758545,0.34849315881729126,0.36219176650047297,0.3578082323074341,0.41095891594886774,0.41972601413726807,0.46739727258682245,0.500821888446808,0.5046575069427489,0.5463013648986816,0.5512328743934631,0.5709589123725891,0.5419178009033203,0.49643835425376887,0.4920547902584076,0.4421917796134949,0.4054794609546661,0.391780823469162,0.34410959482193,0.3693150579929352,0.33424657583236694,0.34082192182540894,0.3282191753387451,0.31013697385787964,0.34082192182540894,0.31178081035614014,0.3298630118370056,0.3205479383468628,0.307945191860199,0.3413698673248291,0.3106849193572998,0.33589041233062744,0.3189041018486023,0.29589042067527765,0.3347945213317871,0.3057534098625183,0.32493150234222407,0.3030137121677398,0.3073972463607788,0.33424657583236694,0.2860274016857147,0.3156164288520813,0.29863014817237854,0.28876712918281555,0.3221917748451233,0.2909589111804962,0.32493150234222407,0.32602739334106445,0.3347945213317871,0.3967123329639434,0.3747945129871368,0.37315067648887634,0.4000000059604645,0.378630131483078,0.43232876062393194,0.3764383494853973,0.38958904147148127,0.36986300349235535,0.3304109573364258,0.3353424668312073,0.27452054619789124,0.28273972868919367,0.27945205569267273,0.2657534182071686,0.29972603917121887,0.27616438269615173,0.2854794561862945,0.2876712381839752,0.25972601771354675,0.4723287522792816,0.4827397167682648,0.7989041209220886,1.0,0.7315068244934082,0.36493149399757385,0.0,0.11287671327590942,0.23068493604660037,0.2684931457042694,0.2975342571735382,0.250410944223404,0.2800000011920929,0.2783561646938324,0.27890411019325256,0.3095890283584595,0.2843835651874542,0.3090410828590393,0.3063013553619385,0.29698631167411804,0.31506848335266113,0.28712329268455505,0.31506848335266113,0.30849313735961914,0.2756164371967316,0.3331506848335266,0.30191782116889954,0.0,0.0,0.0,0.0,0.0,0.0,0.0,0.0,0.0,0.0,0.0,0.0,0.0,0.0,0.0,0.0,0.0,0.0,0.0,0.0,0.0,0.0,0.0,0.0,0.0,0.0,0.0,0.0,0.0,0.0,0.0,0.0,0.0,0.0,0.0,0.0,0.0,0.0,0.0,0.0,0.0,0.0,0.0,0.0,0.0,0.0,0.0,0.0,0.0,0.0,0.0,0.0,0.0,0.0,0.0,0.0,0.0,0.0,0.0,0.0,0.0,0.0,0.0,0.0,0.0,1.0
0.9200000166893004,0.9647222161293028,0.4774999916553497,0.17000000178813934,0.13555555045604703,0.1088888868689537,0.08388888835906982,0.06861110776662827,0.07000000029802321,0.0694444477558136,0.0625,0.05861110985279083,0.06111111119389533,0.06361111253499985,0.07027778029441833,0.06694444268941879,0.06833333522081375,0.06527777761220932,0.07999999821186066,0.07527777552604675,0.08027777820825575,0.08500000089406966,0.0883333310484886,0.10138888657093048,0.10583333671092988,0.11833333224058153,0.13750000298023224,0.1366666704416275,0.15472222864627838,0.17527778446674347,0.19555555284023285,0.21666666865348813,0.22361111640930173,0.2283333390951157,0.23333333432674408,0.23722222447395325,0.22805555164813995,0.20277777314186096,0.17777778208255768,0.14916667342185974,0.11916666477918623,0.1111111119389534,0.0880555585026741,0.08444444090127945,0.08305555582046509,0.08638888597488403,0.0672222226858139,0.07888888567686081,0.07361111044883728,0.06916666775941849,0.07527777552604675,0.08055555820465088,0.07472222298383711,0.07750000059604643,0.07833333313465118,0.09000000357627869,0.08916666358709334,0.07055555284023285,0.09666666388511656,0.09361111372709274,0.08166666328907013,0.08500000089406966,0.07944444566965102,0.0836111083626747,0.09138888865709306,0.08277777582406996,0.07944444566965102,0.08194444328546525,0.07138888537883759,0.08277777582406996,0.06861110776662827,0.06833333522081375,0.07583333551883698,0.06638889014720917,0.07333333045244217,0.08277777582406996,0.07444444298744202,0.07972222566604614,0.08916666358709334,0.09611111134290697,0.11305555701255798,0.10055555403232574,0.0949999988079071,0.09000000357627869,0.08250000327825546,0.07805555313825606,0.08166666328907013,0.056111112236976624,0.04027777910232544,0.04527777805924416,0.04694444313645362,0.0347222238779068,0.04527777805924416,0.0394444428384304,0.04555555433034897,0.0,0.0949999988079071,0.2688888907432556,0.6052777767181396,0.8611111044883728,1.0,0.7552777528762817,0.20944444835186005,0.16388888657093048,0.11333333700895308,0.07999999821186066,0.08388888835906982,0.051666665822267525,0.0602777786552906,0.06555555760860443,0.05527777597308159,0.05000000074505805,0.046388890594244,0.05916666612029076,0.06527777761220932,0.05305555462837219,0.05916666612029076,0.057777777314186096,0.06111111119389533,0.07000000029802321,0.07500000298023222,0.0,0.0,0.0,0.0,0.0,0.0,0.0,0.0,0.0,0.0,0.0,0.0,0.0,0.0,0.0,0.0,0.0,0.0,0.0,0.0,0.0,0.0,0.0,0.0,0.0,0.0,0.0,0.0,0.0,0.0,0.0,0.0,0.0,0.0,0.0,0.0,0.0,0.0,0.0,0.0,0.0,0.0,0.0,0.0,0.0,0.0,0.0,0.0,0.0,0.0,0.0,0.0,0.0,0.0,0.0,0.0,0.0,0.0,0.0,0.0,0.0,0.0,0.0,0.0,0.0,0.0,1.0
0.9776161313056944,0.39395636320114136,0.07386681437492369,0.0,0.11191941797733305,0.19697818160057068,0.21096810698509216,0.2165640741586685,0.22216004133224487,0.22271963953971863,0.2316731959581375,0.23223279416561127,0.23391158878803253,0.24286513030529025,0.2417459487915039,0.24510352313518524,0.2529378831386566,0.25853386521339417,0.26748740673065186,0.2747621834278106,0.28147733211517334,0.2988248467445373,0.3083379864692688,0.32512590289115906,0.34415221214294434,0.35926133394241333,0.3721320629119873,0.3805260360240936,0.3905987739562988,0.39843311905860895,0.39395636320114136,0.3933967649936676,0.37828764319419855,0.3788472414016724,0.35926133394241333,0.3480693995952606,0.33631783723831177,0.31617236137390137,0.3088975846767425,0.2960268557071686,0.2904309034347534,0.28987130522727966,0.28259652853012085,0.2853945195674896,0.28147733211517334,0.2820369303226471,0.2848349213600158,0.2848349213600158,0.29266926646232605,0.2932288646697998,0.2960268557071686,0.3060995936393738,0.3016228377819061,0.31337437033653254,0.3167319595813751,0.3212087154388428,0.32792389392852783,0.32008954882621765,0.3217683136463165,0.32344710826873774,0.34415221214294434,0.38108560442924494,0.3743704557418823,0.3945159614086151,0.4202574193477631,0.45551201701164246,0.47341912984848017,0.4208170175552368,0.4034695029258728,0.33799663186073303,0.3083379864692688,0.29994404315948486,0.28427532315254206,0.27420258522033686,0.26860660314559937,0.2669278085231781,0.26748740673065186,0.25853386521339417,0.2618914246559143,0.2596530616283417,0.26245102286338806,0.2988248467445373,0.42417460680007935,0.4722999334335327,0.6446558237075806,1.0,0.5506435632705688,0.18074986338615415,0.04196978360414505,0.12311135977506636,0.22271963953971863,0.2607722580432892,0.24958030879497528,0.2506994903087616,0.2618914246559143,0.2708449959754944,0.2792389392852783,0.2781197428703308,0.2881925106048584,0.2921096682548523,0.2954672574996948,0.29434806108474726,0.0,0.0,0.0,0.0,0.0,0.0,0.0,0.0,0.0,0.0,0.0,0.0,0.0,0.0,0.0,0.0,0.0,0.0,0.0,0.0,0.0,0.0,0.0,0.0,0.0,0.0,0.0,0.0,0.0,0.0,0.0,0.0,0.0,0.0,0.0,0.0,0.0,0.0,0.0,0.0,0.0,0.0,0.0,0.0,0.0,0.0,0.0,0.0,0.0,0.0,0.0,0.0,0.0,0.0,0.0,0.0,0.0,0.0,0.0,0.0,0.0,0.0,0.0,0.0,0.0,0.0,0.0,0.0,0.0,0.0,0.0,0.0,0.0,0.0,0.0,0.0,0.0,0.0,0.0,0.0,0.0,0.0,0.0,0.0,0.0,0.0
1.0,0.5123606324195862,0.14541929960250854,0.044595248997211456,0.04750363528728485,0.117789626121521,0.1657779961824417,0.19873969256877896,0.2040717452764511,0.21134270727634427,0.22200678288936612,0.22346097230911252,0.22443044185638428,0.219583123922348,0.2249151766300201,0.23218613862991333,0.23509451746940607,0.24042657017707825,0.23024721443653104,0.24818225204944608,0.2583616077899933,0.2612699866294861,0.26417839527130127,0.2733882665634155,0.2971400916576385,0.309258371591568,0.3150751292705536,0.3315559923648834,0.34270480275154114,0.3572467267513275,0.36645662784576416,0.37905961275100714,0.3756664991378784,0.377120703458786,0.34609791636466974,0.33301016688346863,0.3048957884311676,0.2821134328842163,0.2636936604976654,0.25060591101646423,0.24818225204944608,0.24672806262969968,0.235579252243042,0.23024721443653104,0.2341250628232956,0.23897236585617063,0.2292777448892593,0.22346097230911252,0.2263693660497665,0.22879302501678464,0.2249151766300201,0.2239457070827484,0.22152204811573029,0.22733882069587708,0.22733882069587708,0.23364032804965967,0.22152204811573029,0.2292777448892593,0.22346097230911252,0.2084343135356903,0.21231216192245483,0.2157052904367447,0.21473582088947296,0.21231216192245483,0.2055259346961975,0.20794959366321564,0.21328163146972656,0.19728550314903257,0.19825497269630432,0.19777023792266843,0.20019389688968656,0.19680076837539673,0.20891904830932617,0.2394571006298065,0.2554532289505005,0.24478913843631744,0.27096462249755854,0.2457586079835892,0.2636936604976654,0.2549684941768646,0.2268541008234024,0.20504119992256165,0.19340765476226807,0.17450314760208127,0.17256422340869904,0.17450314760208127,0.1686863750219345,0.16674745082855225,0.16917110979557037,0.11003392934799194,0.19437712430953977,0.4498303532600402,0.8085312843322755,0.915656805038452,0.3814832866191864,0.05477460101246834,0.0,0.011633543297648428,0.09646146744489667,0.12990790605545044,0.15414445102214813,0.16820165514945984,0.17595733702182767,0.18322831392288208,0.18468250334262848,0.18952980637550357,0.19825497269630432,0.21085797250270844,0.21134270727634427,0.2069801241159439,0.2200678586959839,0.23073194921016693,0.23460979759693143,0.2365487217903137,0.23024721443653104,0.24672806262969968,0.259331077337265,0.26320892572402954,0.279689759016037,0.2927775084972381,0.30683469772338867,0.3247697651386261,0.3262239396572113,0.34755212068557734,0.3514299690723419,0.35046049952507013,0.34706738591194153,0.3286476135253906,0.30344158411026,0.27096462249755854,0.24478913843631744,0.2278235554695129,0.23024721443653104,0.23024721443653104,0.2253998965024948,0.2186136692762375,0.21909840404987332,0.2181289345026016,0.2186136692762375,0.2181289345026016,0.22588463127613068,0.22733882069587708,0.2292777448892593,0.2268541008234024,0.235579252243042,0.23170140385627744,0.2326708734035492,0.2326708734035492,0.2409112900495529,0.2380029112100601,0.2394571006298065,0.2341250628232956,0.2263693660497665,0.23024721443653104,0.22297625243663788,0.2263693660497665,0.2249151766300201,0.23606398701667783,0.2283082902431488,0.0,0.0,0.0,0.0,0.0,0.0,0.0,0.0,0.0,0.0,0.0,0.0,0.0,0.0,0.0,0.0,0.0,0.0,0.0,0.0,0.0,0.0,0.0,0.0,0.0,0.0,0.0,0.0,0.0
0.9568697214126587,0.3103601634502411,0.03334815427660942,0.0,0.013339261524379252,0.11204980313777924,0.14228546619415283,0.14717651903629303,0.1565140038728714,0.161849707365036,0.16273899376392365,0.16496220231056213,0.17385505139827728,0.18008004128932953,0.17785681784152985,0.18497109413146967,0.18630503118038175,0.19386394321918488,0.20409069955348969,0.2125389128923416,0.21787461638450625,0.2338817268610001,0.2454424202442169,0.26411738991737366,0.27389952540397644,0.2894619703292846,0.30724766850471497,0.3254779875278473,0.34637618064880366,0.3730546832084656,0.4050689339637756,0.43041351437568653,0.46153846383094793,0.4873276948928833,0.5171186923980713,0.5362383127212524,0.5504668951034546,0.546909749507904,0.5291240811347961,0.4922187626361847,0.44019564986228943,0.394397497177124,0.34637618064880366,0.3054690957069397,0.2707870304584503,0.24811026453971863,0.23432636260986328,0.22587816417217252,0.21654067933559415,0.21298354864120483,0.201422855257988,0.201422855257988,0.20097821950912476,0.2023121416568756,0.2018674910068512,0.2023121416568756,0.20586927235126493,0.211649626493454,0.20898176729679108,0.21342818439006803,0.2143174707889557,0.21298354864120483,0.2049799859523773,0.20409069955348969,0.201422855257988,0.20008893311023712,0.20275677740573883,0.20453535020351407,0.20320142805576324,0.20898176729679108,0.2049799859523773,0.2094264179468155,0.1974210739135742,0.19786572456359863,0.201422855257988,0.19386394321918488,0.18986216187477112,0.18497109413146967,0.182303249835968,0.182303249835968,0.176522895693779,0.17296576499938965,0.172076478600502,0.17385505139827728,0.17474433779716492,0.16763006150722504,0.16763006150722504,0.16496220231056213,0.1591818630695343,0.15784792602062225,0.1645175665616989,0.1667407751083374,0.15518008172512054,0.15829257667064667,0.15518008172512054,0.15162293612957,0.14450867474079132,0.1365051120519638,0.14095152914524078,0.14762116968631744,0.1462872326374054,0.1591818630695343,0.19786572456359863,0.2156514078378677,0.23477101325988767,0.24633170664310453,0.27123165130615234,0.2707870304584503,0.2503334879875183,0.22098711133003235,0.20675855875015256,0.18763895332813263,0.1667407751083374,0.15562471747398376,0.1542907953262329,0.15162293612957,0.14806580543518066,0.14584259688854215,0.14584259688854215,0.15028901398181915,0.15073366463184357,0.11783014982938766,0.06669630855321884,0.21698532998561856,0.6425077915191649,1.0,0.7856824994087219,0.1694086194038391,0.06180524826049805,0.043574921786785126,0.09693197160959245,0.16229435801506042,0.18052467703819275,0.17785681784152985,0.182303249835968,0.19430857896804807,0.19297465682029724,0.1920853704214096,0.1996442824602127,0.20898176729679108,0.211649626493454,0.22676745057106015,0.2316585183143616,0.23699422180652616,0.23432636260986328,0.24366384744644165,0.2543352544307709,0.2623388171195984,0.0,0.0,0.0,0.0,0.0,0.0,0.0,0.0,0.0,0.0,0.0,0.0,0.0,0.0,0.0,0.0,0.0,0.0,0.0,0.0,0.0,0.0,0.0,0.0,0.0,0.0,0.0,0.0,0.0,0.0,0.0,0.0,0.0,0.0,0.0,0.0,0.0,0.0,0.0,0.0
1.0,0.6065475940704346,0.38353174924850464,0.17638888955116272,0.164682537317276,0.18869048357009888,0.1875,0.18035714328289032,0.18214285373687744,0.18015873432159424,0.1875,0.18531745672225952,0.18611110746860504,0.18809524178504944,0.1894841343164444,0.19880951941013336,0.19861111044883728,0.19781745970249176,0.20575396716594696,0.20912697911262512,0.22162698209285736,0.22956348955631256,0.2390872985124588,0.2523809671401977,0.2656745910644531,0.2851190567016601,0.2968254089355469,0.3055555522441864,0.32182538509368896,0.3255952298641205,0.3331349194049835,0.3303571343421936,0.3238095343112945,0.30912697315216064,0.2847222089767456,0.2630952298641205,0.2351190447807312,0.21547618508338928,0.20317460596561432,0.18988095223903656,0.18869048357009888,0.17976190149784088,0.17599205672740936,0.17837300896644592,0.17638888955116272,0.18293650448322296,0.18174603581428528,0.17837300896644592,0.18075396120548248,0.17916665971279144,0.1825396865606308,0.17718254029750824,0.17400793731212616,0.17400793731212616,0.17400793731212616,0.17916665971279144,0.17281745374202728,0.17043650150299072,0.17380952835083008,0.17301587760448456,0.17638888955116272,0.16825397312641144,0.16785714030265808,0.16944444179534912,0.16527777910232544,0.1696428507566452,0.16706348955631256,0.16488094627857208,0.17123015224933624,0.1865079402923584,0.20079365372657773,0.20575396716594696,0.20218254625797272,0.21051587164402008,0.21686507761478424,0.2261904776096344,0.2212301641702652,0.20892857015132904,0.18293650448322296,0.16488094627857208,0.1626984179019928,0.15456348657608032,0.14761905372142792,0.14702381193637848,0.14226190745830536,0.14464285969734192,0.14265872538089752,0.14067460596561432,0.14345237612724304,0.13928571343421936,0.13174603879451752,0.027579365298151966,0.0,0.20952381193637848,0.5285714268684387,0.9226190447807312,0.7107142806053162,0.43591269850730896,0.2291666716337204,0.14265872538089752,0.1716269850730896,0.17281745374202728,0.16706348955631256,0.16785714030265808,0.167658731341362,0.17519840598106384,0.17519840598106384,0.17242063581943512,0.17817460000514984,0.18075396120548248,0.18928571045398712,0.1865079402923584,0.18869048357009888,0.1954365074634552,0.0,0.0,0.0,0.0,0.0,0.0,0.0,0.0,0.0,0.0,0.0,0.0,0.0,0.0,0.0,0.0,0.0,0.0,0.0,0.0,0.0,0.0,0.0,0.0,0.0,0.0,0.0,0.0,0.0,0.0,0.0,0.0,0.0,0.0,0.0,0.0,0.0,0.0,0.0,0.0,0.0,0.0,0.0,0.0,0.0,0.0,0.0,0.0,0.0,0.0,0.0,0.0,0.0,0.0,0.0,0.0,0.0,0.0,0.0,0.0,0.0,0.0,0.0,0.0,0.0,0.0,0.0,0.0,0.0,0.0,0.0,0.0,0.0,0.0
1.0,0.7376928925514221,0.664217472076416,0.7215282917022705,0.7501837015151978,0.7575312256813049,0.7252020835876464,0.7406318783760071,0.7310801148414611,0.7354885935783385,0.7288758158683776,0.7582659721374511,0.7604702711105346,0.7443056702613831,0.7281410694122313,0.7237325310707091,0.698750913143158,0.7068331837654114,0.6855253577232361,0.6965466737747192,0.6855253577232361,0.6656870245933533,0.6671565175056458,0.6274797916412354,0.6201322674751282,0.5826597809791565,0.5723732709884644,0.5400440692901611,0.49889788031578064,0.4871418178081512,0.43938282132148737,0.39235857129096974,0.3556208610534668,0.27406319975852966,0.23218221962451932,0.17046289145946503,0.14327700436115265,0.11388684809207916,0.0911094769835472,0.10213078558444975,0.14327700436115265,0.16458486020565033,0.26598089933395386,0.29537105560302734,0.3791329860687256,0.4459955990314484,0.49008083343505854,0.5356355905532837,0.5481263995170593,0.5914768576622009,0.6201322674751282,0.6377663612365723,0.6620132327079773,0.6649522185325624,0.664217472076416,0.6700955033302307,0.6693607568740845,0.6722998023033142,0.6554004549980164,0.667891263961792,0.6583394408226013,0.6487876772880553,0.6583394408226013,0.6546657085418701,0.667891263961792,0.6825863122940063,0.6855253577232361,0.6928728818893433,0.6914033889770508,0.6847906112670897,0.6855253577232361,0.6671565175056458,0.6796473264694214,0.6664217710494995,0.670830249786377,0.6840558648109436,0.6664217710494995,0.6796473264694214,0.6722998023033142,0.6656870245933533,0.6745040416717529,0.6869948506355286,0.7134460210800171,0.7288758158683776,0.7112417221069336,0.6774430274963379,0.5657604932785033,0.5951506495475769,0.5863335728645325,0.6318883299827576,0.5584129095077515,0.5518001317977905,0.4077883958816528,0.2020573168992996,0.1697281450033188,0.0,0.2762674391269684,0.5650256872177124,0.6847906112670897,0.78177809715271,0.7986774444580078,0.7876561284065247,0.7736958265304564,0.7428361773490906,0.7567964792251587,0.7736958265304564,0.778839111328125,0.7832475900650024,0.7685525417327882,0.7898603677749634,0.7979426980018615,0.7803086042404176,0.7766348123550414,0.7729610800743102,0.7707567811012269,0.7736958265304564,0.7443056702613831,0.7553269863128662,0.7376928925514221,0.7318148612976073,0.7354885935783385,0.7112417221069336,0.7171197533607483,0.695077121257782,0.6789125800132751,0.6473181247711182,0.612784743309021,0.5988243818283081,0.5745775103569031,0.5349007844924927,0.5554739236831665,0.5459221005439758,0.5510653853416443,0.5584129095077515,0.5892726182937622,0.6098456978797913,0.6216017603874208,0.6583394408226013,0.6847906112670897,0.6847906112670897,0.6965466737747192,0.6906686425209044,0.6928728818893433,0.6877295970916748,0.0,0.0,0.0,0.0,0.0,0.0,0.0,0.0,0.0,0.0,0.0,0.0,0.0,0.0,0.0,0.0,0.0,0.0,0.0,0.0,0.0,0.0,0.0,0.0,0.0,0.0,0.0,0.0,0.0,0.0,0.0,0.0,0.0,0.0,0.0,0.0,0.0,0.0,0.0,0.0,0.0,0.0,0.0,1.0
0.9759838581085203,0.5695257186889648,0.37941473722457886,0.18869829177856445,0.17679111659526825,0.19899091124534607,0.20928354561328888,0.20302724838256836,0.20242179930210116,0.20343087613582608,0.20040363073349,0.20726539194583887,0.21190716326236725,0.20968718826770785,0.212310791015625,0.21311806142330167,0.2207870781421661,0.22462159395217893,0.22663976252079007,0.2371342033147812,0.24076689779758453,0.25408679246902466,0.2649848759174347,0.2762865722179413,0.2906155288219452,0.2992936372756958,0.31745710968971247,0.3327951431274414,0.3432896137237549,0.3489404618740082,0.34752774238586426,0.35075682401657104,0.34369322657585144,0.32189705967903137,0.2968718409538269,0.2698284685611725,0.2552976906299591,0.23834510147571564,0.2197780013084412,0.21311806142330167,0.2036326974630356,0.20322905480861664,0.2010090798139572,0.2002018094062805,0.2012109011411667,0.19414731860160828,0.2026236057281494,0.19858728349208832,0.1965691149234772,0.19354186952114105,0.19152371585369113,0.1971745640039444,0.19515641033649445,0.19596366584300995,0.1965691149234772,0.18890009820461276,0.1979818344116211,0.20080725848674771,0.19576185941696167,0.19475276768207553,0.19374369084835047,0.19556003808975217,0.19535821676254272,0.19212916493415833,0.19394551217556,0.18526740372180936,0.19394551217556,0.18970736861228943,0.2010090798139572,0.21150353550910947,0.21473258733749387,0.22623611986637115,0.22825428843498227,0.23915237188339236,0.23551967740058896,0.247426837682724,0.23693239688873288,0.22381432354450223,0.1923309713602066,0.1810292601585388,0.1715438961982727,0.17174571752548215,0.1673057526350021,0.16286578774452207,0.16488395631313324,0.16226033866405487,0.1658930331468582,0.1683148294687271,0.16791120171546936,0.1644803285598755,0.11866801232099532,0.0,0.11342078447341918,0.34369322657585144,0.7305752038955688,1.0,0.5939455032348633,0.3949545919895172,0.18890009820461276,0.17134207487106323,0.19212916493415833,0.20161452889442444,0.19515641033649445,0.19293642044067383,0.19757820665836331,0.1945509612560272,0.20201815664768216,0.20343087613582608,0.2040363252162933,0.2106962651014328,0.2100908160209656,0.2195761799812317,0.22623611986637115,0.2306760847568512,0.23794147372245789,0.24278506636619568,0.25832492113113403,0.26599395275115967,0.0,0.0,0.0,0.0,0.0,0.0,0.0,0.0,0.0,0.0,0.0,0.0,0.0,0.0,0.0,0.0,0.0,0.0,0.0,0.0,0.0,0.0,0.0,0.0,0.0,0.0,0.0,0.0,0.0,0.0,0.0,0.0,0.0,0.0,0.0,0.0,0.0,0.0,0.0,0.0,0.0,0.0,0.0,0.0,0.0,0.0,0.0,0.0,0.0,0.0,0.0,0.0,0.0,0.0,0.0,0.0,0.0,0.0,0.0,0.0,0.0,0.0,0.0,0.0,0.0,0.0,0.0,0.0,0.0,0.0
1.0,0.5436002016067505,0.4344722032546997,0.48240694403648376,0.4084650576114655,0.34829169511795044,0.31463539600372314,0.27893930673599243,0.34013259410858154,0.3421723544597626,0.3554309010505676,0.3166751563549042,0.34013259410858154,0.35339114069938654,0.346251904964447,0.3503314554691314,0.3498215079307556,0.3268740475177765,0.3906170427799225,0.3396226465702057,0.3421723544597626,0.34115245938301086,0.33911269903182983,0.35390105843544006,0.34115245938301086,0.3590005040168762,0.35084140300750727,0.3472718000411988,0.36766955256462097,0.34064254164695734,0.3472718000411988,0.3431922495365143,0.2983171939849853,0.3304436504840851,0.26721060276031494,0.274859756231308,0.28403875231742853,0.2870984077453613,0.3034166097640991,0.282508909702301,0.3003569543361664,0.2896481454372406,0.2830188572406769,0.30902600288391113,0.26823049783706665,0.28913819789886475,0.28913819789886475,0.28913819789886475,0.338602751493454,0.28811830282211304,0.3085160553455353,0.33809280395507807,0.30443650484085083,0.3360530436038971,0.29729729890823364,0.3217746019363404,0.30239674448966974,0.29678735136985773,0.3187149465084076,0.29474759101867676,0.2988271415233612,0.2830188572406769,0.2942376434803009,0.3069862425327301,0.26721060276031494,0.28097909688949585,0.28352880477905273,0.2621111571788788,0.28454869985580444,0.25293219089508057,0.2621111571788788,0.24732279777526853,0.2549719512462616,0.28352880477905273,0.24171340465545652,0.2743498086929321,0.2651708424091339,0.2728199958801269,0.29729729890823364,0.2616012096405029,0.26619070768356323,0.2641509473323822,0.26262110471725464,0.28913819789886475,0.24732279777526853,0.2733299434185028,0.2651708424091339,0.2641509473323822,0.3049464523792267,0.2559918463230133,0.2575216591358185,0.26925039291381836,0.2677205502986908,0.3396226465702057,0.30545639991760254,0.33911269903182983,0.3712391555309296,0.3671596050262451,0.3814380466938018,0.37021929025650013,0.3268740475177765,0.29474759101867676,0.2784293591976166,0.26925039291381836,0.22131565213203433,0.24171340465545652,0.23355430364608765,0.23610402643680567,0.24273329973220825,0.1993880718946457,0.11677715182304382,0.0,0.25854155421257013,0.7776644825935363,0.9433962106704714,0.5089240074157715,0.3819479942321777,0.43141254782676697,0.3712391555309296,0.31004589796066284,0.2978072464466095,0.2677205502986908,0.26568078994750977,0.28199899196624756,0.2503824532032013,0.28097909688949585,0.2697603404521942,0.2677205502986908,0.3085160553455353,0.27180010080337524,0.27536970376968384,0.2687404453754425,0.3003569543361664,0.31361550092697144,0.27638959884643555,0.2988271415233612,0.0,0.0,0.0,0.0,0.0,0.0,0.0,0.0,0.0,0.0,0.0,0.0,0.0,0.0,0.0,0.0,0.0,0.0,0.0,0.0,0.0,0.0,0.0,0.0,0.0,0.0,0.0,0.0,0.0,0.0,0.0,0.0,0.0,0.0,0.0,0.0,0.0,0.0,0.0,0.0,0.0,0.0,0.0,0.0,0.0,0.0,0.0,0.0,0.0,0.0,0.0,1.0
1.0,0.8009656667709351,0.3857296109199524,0.1201716735959053,0.1067596599459648,0.07939913868904114,0.06866952776908875,0.06223176047205925,0.05525751039385796,0.054721031337976456,0.05311158671975136,0.05954935774207115,0.057403434067964554,0.05418454855680466,0.058476395905017846,0.07027897238731384,0.08208154141902924,0.08422746509313582,0.08959227800369263,0.09173819422721863,0.09549356251955032,0.1056866943836212,0.1158798262476921,0.13197425007820127,0.14431330561637878,0.16469956934452057,0.18884120881557465,0.20922747254371643,0.22746780514717105,0.2537553608417511,0.2714592218399048,0.28487125039100647,0.29989269375801086,0.31276825070381165,0.3175965547561645,0.29989269375801086,0.2564377784729004,0.2269313335418701,0.19152361154556277,0.15504291653633115,0.123927041888237,0.112124465405941,0.09710300713777542,0.09603004157543182,0.100321888923645,0.08851931244134904,0.07457081228494643,0.07564377784729005,0.08315450698137283,0.09012875705957411,0.09120171517133711,0.07993562519550323,0.07939913868904114,0.08959227800369263,0.09656652063131331,0.09603004157543182,0.09120171517133711,0.09120171517133711,0.09442060440778732,0.09603004157543182,0.09817596524953842,0.09334763884544371,0.08047210425138474,0.07564377784729005,0.07939913868904114,0.08100858330726622,0.07618025690317155,0.06759656965732574,0.07188840955495833,0.06545064598321915,0.06062231585383415,0.06384120136499405,0.06330472230911255,0.05686695128679276,0.04989270493388176,0.06169527769088745,0.08637338876724243,0.1110514998435974,0.1228540763258934,0.12982831895351407,0.15021459758281708,0.17328326404094696,0.17864806950092316,0.19313304126262665,0.19366952776908877,0.14753219485282895,0.09495708346366881,0.05257510766386986,0.043454933911561966,0.034334763884544366,0.020922746509313583,0.008047210052609444,0.008047210052609444,0.016094420105218887,0.010729613713920116,0.005364806856960057,0.015557940118014812,0.009656652808189392,0.0042918454855680474,0.0021459227427840233,0.0,0.07296137511730194,0.42489269375801086,0.9163089990615844,0.7789699435234071,0.4093347787857056,0.1207081526517868,0.08422746509313582,0.060085836797952645,0.04184549301862717,0.03862661123275757,0.04184549301862717,0.031652361154556274,0.028433475643396378,0.034334763884544366,0.05203862488269806,0.04291845485568047,0.02628755383193493,0.04023605212569237,0.06169527769088745,0.06384120136499405,0.06652360409498215,0.07027897238731384,0.0,0.0,0.0,0.0,0.0,0.0,0.0,0.0,0.0,0.0,0.0,0.0,0.0,0.0,0.0,0.0,0.0,0.0,0.0,0.0,0.0,0.0,0.0,0.0,0.0,0.0,0.0,0.0,0.0,0.0,0.0,0.0,0.0,0.0,0.0,0.0,0.0,0.0,0.0,0.0,0.0,0.0,0.0,0.0,0.0,0.0,0.0,0.0,0.0,0.0,0.0,0.0,0.0,0.0,0.0,0.0,0.0,0.0,0.0,0.0,0.0,0.0,0.0,0.0,0.0
1.0,0.5871433615684509,0.23478858172893524,0.03643864020705223,0.019938122481107712,0.06875214725732803,0.08594018220901489,0.0690959095954895,0.06428325921297073,0.07184599339962006,0.07115847617387772,0.0745960846543312,0.08044001460075377,0.08559642732143402,0.0880027487874031,0.08937779068946838,0.09659676998853683,0.09522172808647156,0.10690958797931673,0.10965967923402786,0.1247851476073265,0.13406668603420255,0.15091095864772797,0.16328635811805725,0.17703677713871002,0.20144379138946533,0.23616363108158112,0.2585080862045288,0.2853214144706726,0.31282228231430054,0.32829150557518005,0.3341354429721832,0.321072518825531,0.28704023361206055,0.23547610640525815,0.20006875693798065,0.16328635811805725,0.1302853226661682,0.1103471964597702,0.09178411960601807,0.08250258117914198,0.08456514030694962,0.08525266498327254,0.08387762308120726,0.08250258117914198,0.07734616845846176,0.08319009840488435,0.08112753182649612,0.08147129416465758,0.07768993079662323,0.07700240612030029,0.08490890264511107,0.08319009840488435,0.07734616845846176,0.07872121036052704,0.08456514030694962,0.08525266498327254,0.07975248992443085,0.08765898644924164,0.08525266498327254,0.08387762308120726,0.08044001460075377,0.08662770688533784,0.07940873503684996,0.07940873503684996,0.07665864378213881,0.08112753182649612,0.072533518075943,0.07768993079662323,0.07528360188007353,0.07390855997800827,0.07012718915939331,0.07115847617387772,0.07287728041410446,0.07115847617387772,0.07493983954191206,0.07218975573778152,0.06978343427181244,0.0735647976398468,0.07425232231616972,0.07837744802236557,0.07047095149755478,0.07012718915939331,0.06703334301710129,0.06875214725732803,0.06634582579135895,0.059814367443323135,0.0680646300315857,0.07218975573778152,0.07115847617387772,0.0680646300315857,0.06600206345319748,0.0690959095954895,0.06772086769342422,0.06875214725732803,0.06668958067893982,0.07218975573778152,0.07012718915939331,0.072533518075943,0.07081471383571625,0.06531453877687454,0.06703334301710129,0.06290821731090546,0.07940873503684996,0.09522172808647156,0.10794087499380112,0.12375386804342269,0.12994156777858734,0.14403575658798215,0.14644207060337067,0.12856651842594147,0.11069095879793169,0.11619113385677336,0.08353386074304579,0.06978343427181244,0.057064283639192574,0.05534547939896584,0.05809556692838669,0.04812650382518768,0.02784462086856365,0.0,0.11206600069999693,0.4042626321315765,0.8198693990707396,0.9852182865142822,0.5280165076255798,0.16878652572631836,0.010656583122909067,0.02921966277062893,0.06772086769342422,0.07631488144397734,0.07390855997800827,0.06772086769342422,0.059814367443323135,0.07184599339962006,0.07975248992443085,0.075627364218235,0.06772086769342422,0.08044001460075377,0.0,0.0,0.0,0.0,0.0,0.0,0.0,0.0,0.0,0.0,0.0,0.0,0.0,0.0,0.0,0.0,0.0,0.0,0.0,0.0,0.0,0.0,0.0,0.0,0.0,0.0,0.0,0.0,0.0,0.0,0.0,0.0,0.0,0.0,0.0,0.0,0.0,0.0,0.0,0.0,0.0,0.0,0.0,0.0,0.0,0.0,0.0,0.0,0.0
1.0,0.7984529733657838,0.4129780828952789,0.20412547886371607,0.0343790277838707,0.046841427683830254,0.11173184216022491,0.14825956523418427,0.15040825307369232,0.15857326984405515,0.14439192414283752,0.1581435352563858,0.1671680212020874,0.16330038011074066,0.17533305287361145,0.18822517991065976,0.19896863400936127,0.19767941534519196,0.2140094488859177,0.21873657405376437,0.22647185623645785,0.23979373276233676,0.24366137385368347,0.26042115688323975,0.2720240652561188,0.2870648801326752,0.3162870705127716,0.3429308235645294,0.35152557492256165,0.36484745144844055,0.3833261728286743,0.39621829986572266,0.4073914885520935,0.4091104567050934,0.4043833315372467,0.37902879714965826,0.3579716384410858,0.32359260320663447,0.27761065959930414,0.247529000043869,0.22045552730560303,0.20369574427604675,0.18091963231563568,0.17361409962177277,0.1792006939649582,0.1641598641872406,0.16158144176006317,0.15900300443172455,0.1701761931180954,0.1774817407131195,0.17791147530078888,0.18994413316249847,0.18349806964397433,0.18994413316249847,0.18091963231563568,0.19295230507850647,0.19252255558967593,0.194671243429184,0.1998281031847,0.20971207320690155,0.20799311995506287,0.20627416670322415,0.21830683946609497,0.20627416670322415,0.20111732184886927,0.194671243429184,0.19209282100200653,0.18306833505630493,0.18349806964397433,0.19037386775016785,0.20025783777236936,0.19338203966617584,0.18693597614765167,0.18951439857482913,0.18306833505630493,0.1877954453229904,0.18736571073532104,0.1877954453229904,0.19252255558967593,0.1847872734069824,0.18822517991065976,0.1817791163921356,0.1847872734069824,0.18134938180446625,0.18091963231563568,0.17576278746128082,0.1826385855674744,0.18994413316249847,0.1886549144983292,0.1856467574834824,0.17705199122428894,0.1688869744539261,0.16630855202674863,0.1654490828514099,0.18435753881931305,0.20025783777236936,0.21830683946609497,0.23119896650314328,0.26514825224876404,0.2664374709129333,0.27460250258445734,0.2788998782634735,0.2810485661029816,0.25311559438705444,0.2505371868610382,0.23592609167099,0.18392780423164368,0.16759777069091797,0.16458959877490997,0.16244091093540192,0.16802750527858734,0.16759777069091797,0.1654490828514099,0.14224323630332947,0.12806187570095062,0.2049849629402161,0.5504941940307617,0.9815212488174438,0.91534161567688,0.6420283913612366,0.32316288352012634,0.12591318786144257,0.0,0.0773528143763542,0.15255694091320035,0.1478298306465149,0.15169747173786163,0.16759777069091797,0.17662225663661957,0.17576278746128082,0.1826385855674744,0.17490330338478088,0.19037386775016785,0.19424150884151456,0.20326600968837735,0.2045552283525467,0.21143102645874023,0.2148689329624176,0.2165878862142563,0.22604212164878845,0.24366137385368347,0.2513966560363769,0.2608508765697479,0.2788998782634735,0.30941125750541687,0.33519554138183594,0.3553932011127472,0.3807477355003357,0.39621829986572266,0.4005156755447388,0.4039535820484161,0.4108293950557709,0.40610226988792414,0.0,0.0,0.0,0.0,0.0,0.0,0.0,0.0,0.0,0.0,0.0,0.0,0.0,0.0,0.0,0.0,0.0,0.0,0.0,0.0,0.0,0.0,0.0,0.0,0.0,0.0,0.0,0.0,0.0,0.0,0.0,0.0,0.0,0.0,0.0
1.0,0.656056582927704,0.36781609058380127,0.7780724763870238,0.8222811818122863,0.7038019299507141,0.6321839094161987,0.6410256624221802,0.6746242046356201,0.6162688136100769,0.6914235353469849,0.6648983359336853,0.6719716787338257,0.721485435962677,0.650751531124115,0.7259062528610228,0.738284707069397,0.7374005317687987,0.7833775281906128,0.7241379022598265,0.7754200100898743,0.7922192811965942,0.7718833088874816,0.7948718070983887,0.7294429540634155,0.7895667552947998,0.7524314522743225,0.7206012606620787,0.709106981754303,0.6348364353179932,0.6534040570259094,0.6374889612197876,0.6038903594017029,0.6648983359336853,0.5596817135810852,0.6038903594017029,0.6100795865058899,0.5959327816963196,0.6330680847167969,0.5685234069824219,0.6427940130233765,0.656940758228302,0.6374889612197876,0.679929256439209,0.5773651599884033,0.6516357064247131,0.6675508618354796,0.6489831805229187,0.6454464793205261,0.6162688136100769,0.6534040570259094,0.6657825112342833,0.6145004630088806,0.6304155588150024,0.5870910882949829,0.6330680847167969,0.6206896305084229,0.5676392316818237,0.6755083799362184,0.6268788576126099,0.7763041853904723,0.7002652287483215,0.7533156275749207,0.8567638993263245,0.673740029335022,0.669319212436676,0.6834659576416016,0.6286472082138062,0.5649867653846741,0.5313881635665894,0.5428823828697205,0.5455349087715149,0.5137046575546265,0.523430585861206,0.4889478385448456,0.5419982075691223,0.5499557852745056,0.5243147611618042,0.5260831117630005,0.48010611534118647,0.5543766617774963,0.5473032593727112,0.4129089415073394,0.06896551698446274,0.0,0.8284704089164733,0.8523430824279785,0.49955791234970087,0.7294429540634155,0.9584438800811768,0.8717948794364929,0.6984968781471252,0.6843501329421997,0.7188329100608826,0.656056582927704,0.7285587787628173,0.7374005317687987,0.0,0.0,0.0,0.0,0.0,0.0,0.0,0.0,0.0,0.0,0.0,0.0,0.0,0.0,0.0,0.0,0.0,0.0,0.0,0.0,0.0,0.0,0.0,0.0,0.0,0.0,0.0,0.0,0.0,0.0,0.0,0.0,0.0,0.0,0.0,0.0,0.0,0.0,0.0,0.0,0.0,0.0,0.0,0.0,0.0,0.0,0.0,0.0,0.0,0.0,0.0,0.0,0.0,0.0,0.0,0.0,0.0,0.0,0.0,0.0,0.0,0.0,0.0,0.0,0.0,0.0,0.0,0.0,0.0,0.0,0.0,0.0,0.0,0.0,0.0,0.0,0.0,0.0,0.0,0.0,0.0,0.0,0.0,0.0,0.0,0.0,0.0,0.0,0.0,0.0,1.0
0.9657422304153441,0.5785753130912781,0.4002175033092498,0.4127243161201477,0.36813485622406006,0.27623707056045527,0.253398597240448,0.21479064226150513,0.29309406876564026,0.2468733042478561,0.2109842300415039,0.24632953107357025,0.25013595819473267,0.25611746311187744,0.2854812443256378,0.2637302875518799,0.253398597240448,0.26536160707473755,0.2202283889055252,0.27079933881759644,0.21859706938266757,0.25502991676330566,0.2495921701192856,0.2626427412033081,0.28439369797706604,0.2436106652021408,0.27460575103759766,0.2637302875518799,0.28439369797706604,0.27079933881759644,0.19847743213176727,0.26808047294616694,0.1990212053060532,0.2066340446472168,0.25285482406616205,0.14681892096996307,0.18977704644203183,0.2126155495643616,0.2234910279512405,0.2947253882884979,0.23273518681526184,0.25829255580902094,0.2109842300415039,0.22566612064838407,0.27460575103759766,0.21424686908721924,0.2305600941181183,0.2577487826347351,0.2593801021575928,0.2860250174999237,0.24197933077812195,0.25122350454330444,0.2822186052799225,0.20717781782150269,0.25122350454330444,0.25013595819473267,0.2620989680290222,0.22620989382267,0.2468733042478561,0.2773246467113495,0.19575856626033783,0.2523110508918762,0.22675366699695587,0.27406197786331177,0.2523110508918762,0.2251223474740982,0.28765633702278137,0.2495921701192856,0.2865687906742096,0.28874388337135315,0.22077216207981107,0.24089178442955017,0.26971179246902466,0.23545405268669128,0.2468733042478561,0.26536160707473755,0.2468733042478561,0.2436106652021408,0.2626427412033081,0.24632953107357025,0.22566612064838407,0.26101142168045044,0.27297443151474,0.2593801021575928,0.26644915342330927,0.28493747115135193,0.351821631193161,0.3822729885578156,0.46329528093338007,0.41653072834014887,0.45731374621391296,0.4518760144710541,0.36160957813262934,0.332245796918869,0.29744425415992737,0.23110386729240415,0.2860250174999237,0.25122350454330444,0.24904839694499967,0.263186514377594,0.20391516387462613,0.2316476404666901,0.15606307983398435,0.0,0.24796085059642792,0.6835236549377441,1.0,0.5883632302284241,0.4752582907676697,0.425774872303009,0.37520390748977667,0.3431212604045868,0.26590538024902344,0.26155519485473633,0.27949973940849304,0.24034801125526428,0.2854812443256378,0.28330615162849426,0.2865687906742096,0.26536160707473755,0.28820011019706726,0.3072322010993957,0.311038613319397,0.2925502955913544,0.31158238649368286,0.26590538024902344,0.0,0.0,0.0,0.0,0.0,0.0,0.0,0.0,0.0,0.0,0.0,0.0,0.0,0.0,0.0,0.0,0.0,0.0,0.0,0.0,0.0,0.0,0.0,0.0,0.0,0.0,0.0,0.0,0.0,0.0,0.0,0.0,0.0,0.0,0.0,0.0,0.0,0.0,0.0,0.0,0.0,0.0,0.0,0.0,0.0,0.0,0.0,0.0,0.0,0.0,0.0,0.0,0.0,0.0,0.0,0.0,0.0,0.0,0.0,0.0,0.0,1.0
0.982886016368866,0.6635550260543823,0.3057176172733307,0.061065733432769775,0.03150524944067001,0.10151691734790802,0.123687282204628,0.11551925539970397,0.10774017870426177,0.10735122859477995,0.11240762472152709,0.11201866716146468,0.11318553239107132,0.11124075949192049,0.1162971630692482,0.11901983618736268,0.11940879374742508,0.12485413998365402,0.12913262844085693,0.13341112434864044,0.13652275502681732,0.1431349664926529,0.1478024125099182,0.14896927773952484,0.15713730454444885,0.16802801191806793,0.17697393894195557,0.18903151154518127,0.19797743856906888,0.2217036187648773,0.24037340283393857,0.26254376769065857,0.2823804020881653,0.310774028301239,0.3395566046237945,0.3636717200279236,0.3912874460220337,0.40917930006980896,0.42707118391990656,0.4266822338104248,0.4142357110977173,0.3807856738567352,0.3399455547332764,0.29599377512931824,0.2485414296388626,0.20264488458633423,0.17191754281520844,0.15208090841770172,0.12679891288280487,0.11396344006061553,0.11046285182237624,0.10035005956888197,0.10229482501745224,0.10190587490797041,0.10229482501745224,0.09918319433927536,0.10268378257751463,0.09918319433927536,0.10462854802608489,0.10657332092523573,0.10385064035654068,0.10735122859477995,0.10540645569562912,0.10462854802608489,0.10423959791660307,0.11007390171289444,0.10462854802608489,0.10385064035654068,0.10268378257751463,0.10035005956888197,0.09451575577259064,0.10190587490797041,0.09957215189933775,0.09840528666973114,0.09490470588207245,0.09840528666973114,0.0964605212211609,0.09490470588207245,0.09529366344213484,0.09179307520389555,0.09529366344213484,0.09140412509441376,0.08440295606851578,0.08790353685617447,0.08518086373805998,0.07934655994176865,0.0812913253903389,0.07895760238170622,0.08012446761131287,0.08284714072942732,0.08245819061994553,0.07934655994176865,0.08284714072942732,0.08362504839897156,0.08440295606851578,0.08284714072942732,0.07934655994176865,0.08012446761131287,0.08518086373805998,0.09529366344213484,0.11279657483100893,0.1240762323141098,0.1396343857049942,0.14624659717082977,0.15324775874614716,0.17347335815429688,0.16919486224651337,0.15635938942432404,0.140023335814476,0.1244651898741722,0.09529366344213484,0.08245819061994553,0.07273434102535248,0.07040062546730042,0.06845585256814957,0.0661221295595169,0.062232594937086105,0.06339945644140244,0.06339945644140244,0.06651108711957932,0.06651108711957932,0.06728899478912354,0.0696227177977562,0.07195644080638884,0.07506806403398514,0.061065733432769775,0.0,0.05211979895830154,0.20458965003490448,0.56514972448349,0.8498638868331909,1.0,0.4593543410301208,0.2022559344768524,0.03850641846656799,0.09179307520389555,0.12874367833137512,0.13730065524578094,0.12174250930547714,0.1162971630692482,0.12018670141696929,0.1240762323141098,0.12485413998365402,0.12913262844085693,0.12485413998365402,0.12913262844085693,0.13807857036590576,0.1392454355955124,0.14119020104408264,0.14819136261940002,0.15285880863666534,0.15752625465393066,0.16219370067119598,0.16763904690742493,0.1789187043905258,0.1851419657468796,0.1913652271032333,0.19953325390815732,0.21470245718955996,0.23026059567928317,0.2508751451969147,0.271489679813385,0.2948269248008728,0.3216647207736969,0.3481135666370392,0.3768961429595947,0.0,0.0,0.0,0.0,0.0,0.0,0.0,0.0,0.0,0.0,0.0,0.0,0.0,0.0,0.0,0.0,0.0,0.0,0.0,0.0,0.0,0.0
0.9429486989974976,0.5910256505012512,0.13910256326198575,0.0,0.10000000149011612,0.1692307740449905,0.2089743614196777,0.22820512950420377,0.214102566242218,0.21987178921699524,0.21858973801136017,0.21666666865348813,0.25128206610679626,0.24358974397182465,0.2352564036846161,0.2551282048225403,0.2423076927661896,0.25064101815223694,0.2564102709293365,0.26730769872665405,0.2737179398536682,0.2878205180168152,0.2961538434028625,0.3198717832565308,0.3301281929016113,0.3769230842590332,0.4012820422649384,0.4205128252506256,0.4583333432674408,0.4705128073692322,0.4961538314819336,0.49358972907066345,0.5032051205635071,0.5076923370361328,0.4608974456787109,0.43589743971824646,0.39423078298568726,0.35641026496887207,0.321153849363327,0.31217947602272034,0.2993589639663696,0.26217949390411377,0.2750000059604645,0.25448718667030334,0.27243590354919434,0.2570512890815735,0.26923078298568726,0.27435898780822754,0.27243590354919434,0.26730769872665405,0.2756410241127014,0.25833332538604736,0.2826923131942749,0.2801282107830048,0.28846153616905207,0.28525641560554504,0.26153847575187683,0.2967948615550995,0.2801282107830048,0.28141024708747864,0.26025640964508057,0.27179488539695734,0.2532051205635071,0.26858973503112793,0.25448718667030334,0.26730769872665405,0.2551282048225403,0.2564102709293365,0.2532051205635071,0.25064101815223694,0.2442307621240616,0.2576923072338104,0.25448718667030334,0.26987180113792414,0.26538461446762085,0.2955128252506256,0.34294870495796204,0.3493589758872986,0.37948718667030334,0.339102566242218,0.34871795773506165,0.3653846085071564,0.28717949986457825,0.29487180709838867,0.28141024708747864,0.24294871091842649,0.2211538404226303,0.2461538463830948,0.21089743077754972,0.21730768680572507,0.22179487347602844,0.19807691872119904,0.1903846114873886,0.2384615391492844,0.2025641053915024,0.21858973801136017,0.1596153825521469,0.17115384340286255,0.3205128312110901,0.6096153855323792,0.7730769515037536,1.0,0.39487180113792414,0.013461538590490818,0.027564102783799168,0.11858974397182465,0.18333333730697632,0.2083333283662796,0.20769231021404264,0.21794871985912323,0.23782050609588623,0.2121794819831848,0.21666666865348813,0.24551281332969663,0.25448718667030334,0.2538461685180664,0.2538461685180664,0.25256410241127014,0.25064101815223694,0.25448718667030334,0.2769230902194977,0.0,0.0,0.0,0.0,0.0,0.0,0.0,0.0,0.0,0.0,0.0,0.0,0.0,0.0,0.0,0.0,0.0,0.0,0.0,0.0,0.0,0.0,0.0,0.0,0.0,0.0,0.0,0.0,0.0,0.0,0.0,0.0,0.0,0.0,0.0,0.0,0.0,0.0,0.0,0.0,0.0,0.0,0.0,0.0,0.0,0.0,0.0,0.0,0.0,0.0,0.0,0.0,0.0,0.0,0.0,0.0,0.0,0.0,0.0,0.0,0.0,0.0,0.0,0.0,0.0,0.0,0.0
0.9367768764495848,0.9066115617752076,0.6628099083900452,0.33677685260772705,0.13181817531585693,0.0,0.06239669397473335,0.1371900886297226,0.136776864528656,0.1326446235179901,0.13801652193069458,0.145454540848732,0.1566115766763687,0.16115702688694,0.1652892529964447,0.1719008237123489,0.17851239442825317,0.17396694421768188,0.19090908765792847,0.18966941535472867,0.19958677887916565,0.20454545319080353,0.2264462858438492,0.23181818425655365,0.2371900826692581,0.2475206553936005,0.265702486038208,0.28512397408485407,0.3000000119209289,0.3140496015548706,0.34008264541625977,0.3557851314544678,0.36611568927764887,0.38388431072235113,0.3859504163265228,0.38388431072235113,0.36900827288627613,0.3487603366374969,0.3165289163589477,0.29256197810173035,0.2665289342403412,0.23925620317459104,0.2185950428247452,0.2041322290897369,0.20743802189826965,0.20826447010040283,0.20743802189826965,0.20785124599933624,0.20454545319080353,0.19049586355686188,0.19669421017169952,0.2004132270812988,0.19462810456752777,0.19586776196956637,0.1950413286685944,0.19917355477809903,0.209917351603508,0.21033057570457456,0.20619834959506989,0.20165289938449857,0.20247933268547055,0.19876033067703247,0.1900826394557953,0.1805785149335861,0.18016529083251956,0.185537189245224,0.17768594622612,0.18347106873989105,0.17066115140914917,0.17066115140914917,0.17603306472301483,0.17809917032718658,0.17066115140914917,0.17107437551021576,0.17066115140914917,0.17603306472301483,0.18347106873989105,0.17851239442825317,0.185537189245224,0.18801653385162356,0.17851239442825317,0.17024792730808258,0.1731404960155487,0.16611570119857788,0.17066115140914917,0.17272727191448212,0.17851239442825317,0.1888429820537567,0.1929752081632614,0.193388432264328,0.20826447010040283,0.22148759663105008,0.2450413256883621,0.25371900200843805,0.25619834661483765,0.30082646012306213,0.3024793267250061,0.3103305697441101,0.32603305578231806,0.29834711551666254,0.28347107768058777,0.28471073508262634,0.2533057928085327,0.20785124599933624,0.18388429284095764,0.18595041334629056,0.18388429284095764,0.18223141133785248,0.17148759961128235,0.1685950458049774,0.1206611543893814,0.16446280479431152,0.2921487689018249,0.6797520518302916,1.0,0.8743801712989806,0.4797520637512207,0.2698346972465515,0.11198347061872482,0.06776859611272812,0.14173553884029388,0.1818181872367859,0.17396694421768188,0.17520661652088165,0.18140496313571927,0.18264463543891904,0.1942148804664612,0.19090908765792847,0.19380165636539456,0.18677686154842377,0.18842975795269007,0.19752065837383273,0.20619834959506989,0.21900826692581177,0.22396694123744965,0.2326446324586868,0.2495867758989334,0.25578513741493225,0.2669421434402466,0.2818181812763214,0.2859504222869873,0.311570256948471,0.33595040440559387,0.35537189245224,0.3880165219306946,0.0,0.0,0.0,0.0,0.0,0.0,0.0,0.0,0.0,0.0,0.0,0.0,0.0,0.0,0.0,0.0,0.0,0.0,0.0,0.0,0.0,0.0,0.0,0.0,0.0,0.0,0.0,0.0,0.0,0.0,0.0,0.0,0.0,0.0,0.0,0.0,0.0,0.0,0.0,0.0,0.0,0.0,0.0
0.9624906182289124,0.38634657859802246,0.0855213776230812,0.0,0.04726181551814079,0.09077269583940506,0.10427606850862504,0.08627156913280487,0.08627156913280487,0.08702175319194794,0.08927232027053833,0.0900225043296814,0.09602400660514832,0.10127531737089156,0.10352588444948196,0.10727681964635848,0.12153038382530212,0.11177794635295868,0.12678170204162595,0.13953489065170288,0.1447861939668655,0.1500375121831894,0.1560390144586563,0.1755438894033432,0.18604651093482968,0.1950487643480301,0.21305325627326965,0.22055514156818387,0.23555888235569,0.2655663788318634,0.302325576543808,0.3383345901966095,0.3773443400859833,0.4186046421527863,0.46736684441566473,0.50862717628479,0.5506376624107361,0.5798949599266052,0.5978994965553284,0.6136534214019775,0.6121530532836914,0.5873968601226808,0.5468867421150208,0.4876219034194946,0.4268567264080048,0.3623405992984772,0.3000750243663788,0.2565641403198242,0.21455363929271695,0.1935483813285828,0.1710427552461624,0.15528881549835205,0.147786945104599,0.13803450763225555,0.13503375649452207,0.13128282129764557,0.13128282129764557,0.1305326372385025,0.13353338837623596,0.13128282129764557,0.13653413951396942,0.13578394055366516,0.13653413951396942,0.13953489065170288,0.13203300535678864,0.13503375649452207,0.13128282129764557,0.12753188610076904,0.12603150308132172,0.13128282129764557,0.13428357243537903,0.13203300535678864,0.12078019231557846,0.11477869749069212,0.1132783219218254,0.111027754843235,0.10577644407749176,0.1005251333117485,0.10502626001834868,0.10577644407749176,0.09677419066429138,0.09677419066429138,0.09452363103628159,0.09902475774288176,0.09077269583940506,0.09527381509542464,0.09452363103628159,0.09527381509542464,0.0877719447016716,0.08402100205421446,0.08627156913280487,0.07876969128847122,0.08402100205421446,0.08252062648534775,0.0900225043296814,0.0900225043296814,0.0900225043296814,0.08702175319194794,0.08852212876081465,0.0877719447016716,0.09077269583940506,0.09152287989854813,0.09527381509542464,0.08927232027053833,0.09152287989854813,0.09602400660514832,0.0900225043296814,0.08927232027053833,0.09227307140827179,0.09452363103628159,0.09602400660514832,0.09452363103628159,0.09602400660514832,0.09527381509542464,0.0900225043296814,0.0900225043296814,0.08627156913280487,0.0900225043296814,0.09977494180202483,0.15078769624233243,0.18829707801342008,0.21005252003669736,0.2228057086467743,0.2670667767524719,0.29032257199287415,0.2415603846311569,0.20405101776123047,0.15303826332092285,0.10352588444948196,0.08477119356393814,0.07126781344413757,0.06451612710952759,0.04801200330257416,0.0577644407749176,0.0727681890130043,0.06451612710952759,0.051762942224740975,0.1455363780260086,0.3915978968143463,0.8004500865936278,1.0,0.3188297152519226,0.020255064591765404,0.05251313000917435,0.09827456623315811,0.13653413951396942,0.13353338837623596,0.1200300082564354,0.12078019231557846,0.1155288815498352,0.12378094345331192,0.1305326372385025,0.13578394055366516,0.13878469169139862,0.141035258769989,0.14853712916374207,0.15378844738006592,0.15903976559638977,0.15903976559638977,0.17404350638389587,0.18829707801342008,0.19954988360404968,0.2055513858795166,0.21305325627326965,0.2265566438436508,0.2400600165128708,0.254313588142395,0.28132033348083496,0.0,0.0,0.0,0.0,0.0,0.0,0.0,0.0,0.0,0.0,0.0,0.0,0.0,0.0,0.0,0.0,0.0,0.0,0.0,0.0
0.9623473286628723,0.9810040593147277,0.7466078400611876,0.5023744702339172,0.27951154112815857,0.15468114614486694,0.11363636702299118,0.07937584817409515,0.07937584817409515,0.05902306735515594,0.04952510073781013,0.06411126255989075,0.06682496517896652,0.0644504725933075,0.06512890011072159,0.06411126255989075,0.05189959332346916,0.05325644463300705,0.05122116580605506,0.05529172345995903,0.06411126255989075,0.05732700228691101,0.05563093721866608,0.06648575514554977,0.06614653766155243,0.06343283504247665,0.08107191324234007,0.08785617351531982,0.10413839668035509,0.12720488011837003,0.1499321609735489,0.1560379862785339,0.16994573175907135,0.1835142523050308,0.18962007761001584,0.1879240125417709,0.18249660730361936,0.1601085513830185,0.15094979107379913,0.12652646005153656,0.11363636702299118,0.09667570888996124,0.09871099144220352,0.09599728882312775,0.09531886130571363,0.09837177395820616,0.08717774599790573,0.08683853596448897,0.09667570888996124,0.10108548402786253,0.09497964382171632,0.1058344617486,0.1058344617486,0.11295793950557707,0.11465400457382202,0.10685210675001144,0.10820895433425903,0.12008140981197356,0.1268656700849533,0.1160108521580696,0.10685210675001144,0.10753052681684494,0.11567164212465286,0.1160108521580696,0.1109226569533348,0.13059701025485992,0.14654003083705902,0.14755766093730927,0.1587516963481903,0.19029851257801053,0.1950474828481674,0.23439620435237885,0.19979646801948547,0.15128901600837708,0.11635006964206696,0.11261872202157974,0.10040705651044844,0.09056987613439561,0.09905020147562027,0.09769335389137267,0.09599728882312775,0.07327001541852951,0.01797829009592533,0.0,0.1448439657688141,0.4192672967910767,0.9040027260780334,1.0,0.7981682419776915,0.5417231917381288,0.31207597255706787,0.15094979107379913,0.12211669236421584,0.09464043378829955,0.07598371803760529,0.07801899313926695,0.07293079793453217,0.0630936250090599,0.06750339269638062,0.05698778852820397,0.06478969007730484,0.05732700228691101,0.06173676997423172,0.0,0.0,0.0,0.0,0.0,0.0,0.0,0.0,0.0,0.0,0.0,0.0,0.0,0.0,0.0,0.0,0.0,0.0,0.0,0.0,0.0,0.0,0.0,0.0,0.0,0.0,0.0,0.0,0.0,0.0,0.0,0.0,0.0,0.0,0.0,0.0,0.0,0.0,0.0,0.0,0.0,0.0,0.0,0.0,0.0,0.0,0.0,0.0,0.0,0.0,0.0,0.0,0.0,0.0,0.0,0.0,0.0,0.0,0.0,0.0,0.0,0.0,0.0,0.0,0.0,0.0,0.0,0.0,0.0,0.0,0.0,0.0,0.0,0.0,0.0,0.0,0.0,0.0,0.0,0.0,0.0,0.0,0.0,0.0,0.0
1.0,0.9804581999778749,0.4703504145145416,0.23584905266761777,0.03504043072462082,0.1826145499944687,0.33018869161605835,0.3598382771015167,0.3820754587650299,0.39622640609741205,0.3989218473434448,0.4097034931182861,0.4016172587871552,0.42318058013916016,0.44541779160499567,0.45013478398323054,0.45350405573844904,0.4615902900695801,0.47843664884567266,0.48113209009170527,0.4649595618247986,0.4831536412239074,0.5060647130012512,0.5444744229316713,0.5707547068595886,0.5896226167678833,0.6421833038330078,0.6758760213851929,0.6947439312934875,0.7304581999778748,0.7452830076217651,0.7533692717552185,0.7547169923782349,0.7008086442947388,0.6435310244560242,0.5700808763504028,0.5,0.44811320304870605,0.37870618700981135,0.3463611900806427,0.34029650688171387,0.32412397861480713,0.3113207519054413,0.31266847252845764,0.3247978389263153,0.32345014810562134,0.32277628779411316,0.3247978389263153,0.33827492594718933,0.33760106563568115,0.33760106563568115,0.3322102427482605,0.3322102427482605,0.3322102427482605,0.30929920077323914,0.315363883972168,0.31738543510437006,0.32681941986083984,0.33355796337127686,0.34029650688171387,0.3537735939025879,0.3645552694797516,0.3659029603004456,0.3564690053462982,0.3504043221473694,0.34433960914611816,0.32749325037002563,0.3328841030597687,0.3463611900806427,0.34568732976913447,0.34299191832542414,0.33355796337127686,0.3659029603004456,0.3537735939025879,0.3322102427482605,0.3517520129680633,0.34568732976913447,0.3584905564785004,0.3537735939025879,0.3463611900806427,0.3322102427482605,0.335579514503479,0.34164419770240784,0.34568732976913447,0.33086252212524414,0.34029650688171387,0.3470350503921509,0.34097033739089966,0.3598382771015167,0.38005390763282776,0.40700808167457586,0.4386792480945587,0.473045825958252,0.48584905266761774,0.441374659538269,0.41442048549652094,0.4474393427371978,0.3989218473434448,0.3537735939025879,0.328840970993042,0.30997303128242487,0.3086253404617309,0.31199461221694946,0.3133423328399658,0.31603774428367615,0.3214285671710968,0.32951483130455017,0.3389487862586975,0.3793800473213196,0.513477087020874,0.5464959740638733,0.6913746595382689,0.9791105389595032,0.7486522793769836,0.400943398475647,0.1570080816745758,0.0,0.19878706336021423,0.2870619893074036,0.2991913855075836,0.34838274121284485,0.38072776794433594,0.3578167259693146,0.37668463587760925,0.376010775566101,0.38005390763282776,0.3746630847454071,0.38814017176628113,0.39824798703193665,0.4204851686954498,0.44070079922676086,0.44407007098197937,0.4737196862697601,0.4737196862697601,0.49797844886779785,0.0,0.0,0.0,0.0,0.0,0.0,0.0,0.0,0.0,0.0,0.0,0.0,0.0,0.0,0.0,0.0,0.0,0.0,0.0,0.0,0.0,0.0,0.0,0.0,0.0,0.0,0.0,0.0,0.0,0.0,0.0,0.0,0.0,0.0,0.0,0.0,0.0,0.0,0.0,0.0,0.0,0.0,0.0,0.0,0.0,0.0,0.0,0.0,0.0,0.0,0.0,0.0,0.0
0.932456135749817,0.9631578922271729,0.9043859839439392,0.7710526585578918,0.601754367351532,0.6184210777282715,0.5263158082962036,0.5219298005104065,0.5245614051818848,0.47280701994895935,0.5228070020675659,0.4736842215061188,0.47982457280159,0.5087719559669496,0.6087719202041626,0.8999999761581421,1.0,0.7087719440460205,0.1508771926164627,0.0,0.20350876450538635,0.3438596427440644,0.4938596487045288,0.569298267364502,0.5482456088066101,0.6035087704658508,0.5622807145118712,0.6052631735801697,0.640350878238678,0.6201754212379456,0.680701732635498,0.6640350818634033,0.6982455849647522,0.7017543911933899,0.6491228342056273,0.7078947424888611,0.6736842393875122,0.6956140398979187,0.7035087943077089,0.6429824829101562,0.6991227865219116,0.6421052813529968,0.6421052813529968,0.6552631855010985,0.5868421196937561,0.6271929740905762,0.5675438642501831,0.5675438642501831,0.5684210658073425,0.5061403512954712,0.5403508543968201,0.49122807383537287,0.5096490979194641,0.5289473533630371,0.4833333194255829,0.5464912056922913,0.49736842513084406,0.5149123072624208,0.5289473533630371,0.4894736707210541,0.5438596606254578,0.4938596487045288,0.5201754570007324,0.5096490979194641,0.4473684132099152,0.47280701994895935,0.4078947305679321,0.4026315808296204,0.4245614111423493,0.36052632331848145,0.41491228342056274,0.36842104792594904,0.4017543792724609,0.4315789341926575,0.3877193033695221,0.4394736886024475,0.4324561357498169,0.48245614767074574,0.5877193212509155,0.5614035129547119,0.6456140279769897,0.7219298481941222,0.8447368144989013,0.7912280559539795,0.5745614171028137,0.49122807383537287,0.3877193033695221,0.3614034950733185,0.3631578981876373,0.3210526406764984,0.3859649002552032,0.33859649300575256,0.3780701756477356,0.39912280440330505,0.3263157904148102,0.48070174455642706,0.0,0.0,0.0,0.0,0.0,0.0,0.0,0.0,0.0,0.0,0.0,0.0,0.0,0.0,0.0,0.0,0.0,0.0,0.0,0.0,0.0,0.0,0.0,0.0,0.0,0.0,0.0,0.0,0.0,0.0,0.0,0.0,0.0,0.0,0.0,0.0,0.0,0.0,0.0,0.0,0.0,0.0,0.0,0.0,0.0,0.0,0.0,0.0,0.0,0.0,0.0,0.0,0.0,0.0,0.0,0.0,0.0,0.0,0.0,0.0,0.0,0.0,0.0,0.0,0.0,0.0,0.0,0.0,0.0,0.0,0.0,0.0,0.0,0.0,0.0,0.0,0.0,0.0,0.0,0.0,0.0,0.0,0.0,0.0,0.0,0.0,0.0,0.0,0.0,0.0,0.0,1.0
1.0,0.6611045002937317,0.43067142367362976,0.07071910798549652,0.007945967838168144,0.05919745564460754,0.1430274099111557,0.17759236693382263,0.1938816010951996,0.2101708352565765,0.2129519283771515,0.20063567161560056,0.21533571183681488,0.21573302149772644,0.21771951019763944,0.2344060391187668,0.23083035647869113,0.23162494599819183,0.2236789762973785,0.23202225565910337,0.22566547989845276,0.2371871322393417,0.24711959064006803,0.2542709708213806,0.2602304220199585,0.2745331823825836,0.28764402866363525,0.30472785234451294,0.33055225014686584,0.35081446170806885,0.36710369586944575,0.3969010710716248,0.4282876551151276,0.45649582147598267,0.4739769697189331,0.4783472418785095,0.4914580881595612,0.49860945343971247,0.4890742897987366,0.4727850556373596,0.42272546887397766,0.3818037211894989,0.33174413442611694,0.3071116507053375,0.27532777190208435,0.2542709708213806,0.23043306171894076,0.22248709201812744,0.20580056309700007,0.20341676473617556,0.19149781763553617,0.19507350027561188,0.20540325343608856,0.1966626942157745,0.20341676473617556,0.2069924473762512,0.2101708352565765,0.2161303162574768,0.21533571183681488,0.2208978980779648,0.22487087547779083,0.2236789762973785,0.22606277465820312,0.2296384572982788,0.22407628595829007,0.2161303162574768,0.22407628595829007,0.21454112231731412,0.2149384170770645,0.20897893607616425,0.21136273443698883,0.21334922313690183,0.2121573239564896,0.20063567161560056,0.2073897570371628,0.20103298127651212,0.20341676473617556,0.20381405949592593,0.20500595867633817,0.20143027603626248,0.1958680897951126,0.19110052287578583,0.1994437873363495,0.19229240715503687,0.1958680897951126,0.18752482533454892,0.18712753057479856,0.19070321321487424,0.18712753057479856,0.20063567161560056,0.19030591845512393,0.19149781763553617,0.18871672451496124,0.1966626942157745,0.19745728373527527,0.1966626942157745,0.1926897168159485,0.19110052287578583,0.18990862369537356,0.19705998897552487,0.18553833663463593,0.18633294105529785,0.19030591845512393,0.18196265399456024,0.1934843063354492,0.1895113289356232,0.18355184793472287,0.1934843063354492,0.1891140192747116,0.19507350027561188,0.18156535923480988,0.19110052287578583,0.19308701157569885,0.18990862369537356,0.18871672451496124,0.18633294105529785,0.19030591845512393,0.19507350027561188,0.19070321321487424,0.19507350027561188,0.18871672451496124,0.19189511239528656,0.19547079503536224,0.19189511239528656,0.1978545933961868,0.1823599487543106,0.1946762055158615,0.1934843063354492,0.19427891075611117,0.21255463361740112,0.22566547989845276,0.23480333387851715,0.2407628148794174,0.26738181710243225,0.27850615978240967,0.254668265581131,0.2399682104587555,0.2101708352565765,0.22010329365730283,0.2121573239564896,0.18275724351406095,0.17878426611423492,0.17838697135448456,0.18434643745422363,0.18275724351406095,0.1859356313943863,0.17163290083408356,0.3718712627887726,0.633293628692627,0.9789431691169738,0.9773539900779725,0.5661501884460449,0.23957091569900513,0.0,0.014302741736173628,0.09137862175703047,0.16328963637351987,0.18712753057479856,0.19507350027561188,0.2101708352565765,0.20977354049682617,0.2205006033182144,0.21851409971714017,0.22685736417770383,0.23480333387851715,0.22447358071804047,0.22924116253852844,0.23202225565910337,0.23281684517860407,0.24155740439891812,0.2391736209392548,0.24950337409973145,0.2626142203807831,0.2634088099002838,0.27214938402175903,0.2892332077026367,0.3015494644641876,0.32697656750679016,0.3468414843082428,0.3639253079891205,0.38498210906982416,0.419149786233902,0.44417956471443176,0.0,0.0,0.0,0.0,1.0
0.9785714149475097,0.9653061032295229,0.4051020443439484,0.16224490106105804,0.016326529905200005,0.0010204081190750003,0.022448979318141937,0.030612245202064518,0.026530612260103226,0.03877551108598709,0.0061224489472806445,0.030612245202064518,0.01224489789456129,0.023469388484954837,0.0346938781440258,0.02551020495593548,0.019387755542993546,0.023469388484954837,0.011224489659070969,0.054081633687019355,0.0357142873108387,0.061224490404129035,0.06734693795442581,0.08979591727256776,0.08367346972227097,0.1071428582072258,0.13775509595870972,0.15510204434394836,0.15510204434394836,0.1826530545949936,0.18877550959587097,0.23877550661563876,0.24285714328289032,0.2561224400997162,0.2867347002029419,0.2908163368701935,0.3224489688873291,0.31020408868789673,0.3000000119209289,0.2857142984867096,0.2367346882820129,0.22755101323127744,0.1775510162115097,0.13775509595870972,0.12346938997507095,0.1040816307067871,0.1091836765408516,0.09387755393981932,0.08571428805589677,0.101020410656929,0.10816326737403868,0.09081632643938065,0.09489795565605165,0.11122448742389678,0.11938775330781937,0.1071428582072258,0.13163265585899353,0.11530612409114836,0.1295918375253677,0.13265305757522583,0.12653061747550964,0.13265305757522583,0.12448979914188384,0.12142857164144516,0.1091836765408516,0.1061224490404129,0.11938775330781937,0.09693877398967744,0.09795918315649033,0.09489795565605165,0.08265306055545808,0.08979591727256776,0.0693877562880516,0.06734693795442581,0.0693877562880516,0.0704081654548645,0.06326530873775482,0.03979591652750969,0.04183673486113548,0.05612244829535484,0.04591836780309677,0.06734693795442581,0.03979591652750969,0.04591836780309677,0.052040815353393555,0.03979591652750969,0.05306122452020645,0.03877551108598709,0.05714285746216773,0.05306122452020645,0.055102039128541946,0.08877550810575485,0.1724489778280258,0.21122449636459353,0.2459183633327484,0.3285714387893677,0.3244898021221161,0.27346938848495483,0.2775510251522064,0.22346939146518707,0.12346938997507095,0.07959183305501939,0.028571428731083866,0.03265305981040001,0.03265305981040001,0.0,0.0367346927523613,0.009183673188090323,0.009183673188090323,0.10000000149011612,0.241836741566658,0.4367347061634064,0.7418367266654968,1.0,0.6928571462631226,0.33469387888908386,0.13061223924160004,0.011224489659070969,0.01224489789456129,0.04387754946947098,0.052040815353393555,0.054081633687019355,0.052040815353393555,0.04183673486113548,0.03877551108598709,0.052040815353393555,0.055102039128541946,0.04591836780309677,0.0704081654548645,0.06734693795442581,0.06632652878761292,0.08673469722270964,0.07551020383834839,0.0,0.0,0.0,0.0,0.0,0.0,0.0,0.0,0.0,0.0,0.0,0.0,0.0,0.0,0.0,0.0,0.0,0.0,0.0,0.0,0.0,0.0,0.0,0.0,0.0,0.0,0.0,0.0,0.0,0.0,0.0,0.0,0.0,0.0,0.0,0.0,0.0,0.0,0.0,0.0,0.0,0.0,0.0,0.0,0.0,0.0,0.0,0.0,0.0,0.0,0.0,0.0,0.0,0.0,1.0
1.0,0.8462847471237183,0.769143521785736,0.5978446006774902,0.28474190831184387,0.17073170840740204,0.10777084529399872,0.0901871845126152,0.08281338959932326,0.17697107791900635,0.2098695337772369,0.22178106009960172,0.21667611598968503,0.2325581461191177,0.2353942096233368,0.2410663664340973,0.21894498169422147,0.23993194103240967,0.2535451054573059,0.2473057359457016,0.2524106502532959,0.28304028511047363,0.2853091359138489,0.3034600019454956,0.3159387409687042,0.3573454320430756,0.3925127685070038,0.40839478373527527,0.4469653964042664,0.508224606513977,0.5280771255493164,0.5672149658203125,0.5853658318519592,0.5961429476737976,0.5972773432731628,0.5519001483917236,0.5161656141281128,0.448099821805954,0.42314237356185913,0.3783323764801025,0.34032899141311646,0.32331252098083496,0.3085649609565735,0.26942712068557734,0.2677254676818848,0.24390244483947757,0.23936471343040464,0.22688598930835724,0.2450368702411652,0.2461712956428528,0.23766307532787323,0.22858762741088867,0.2144072651863098,0.2342597842216492,0.22121384739875796,0.21781055629253387,0.22178106009960172,0.21781055629253387,0.22858762741088867,0.21724332869052887,0.22858762741088867,0.22404991090297696,0.21100397408008573,0.2149744778871536,0.20646625757217407,0.19342030584812164,0.18944980204105377,0.20760068297386167,0.20306296646595,0.19682359695434568,0.19739080965518951,0.17867271602153778,0.18321043252944944,0.18661372363567352,0.18604651093482968,0.21043676137924197,0.2433352172374725,0.27566647529602045,0.2904140651226044,0.3125354647636413,0.3074305057525635,0.270561546087265,0.280771404504776,0.2518434524536133,0.2308564931154251,0.1900170147418976,0.1735677868127823,0.16222348809242249,0.18321043252944944,0.16392512619495392,0.13159386813640594,0.1128757819533348,0.14293816685676575,0.1582529842853546,0.13896766304969788,0.16108904778957367,0.15314804017543793,0.1684628427028656,0.17697107791900635,0.17867271602153778,0.17243334650993347,0.1792399287223816,0.1690300554037094,0.17186613380908966,0.17867271602153778,0.19512194395065308,0.18944980204105377,0.18207600712776184,0.10493476688861846,0.0,0.07487237453460693,0.4356211125850677,0.9920589923858641,0.8298355340957642,0.7543959021568297,0.5694838166236876,0.2280204147100449,0.14917753636837003,0.07203630357980728,0.05785592645406723,0.04991491883993149,0.13045944273471832,0.17016449570655823,0.18264321982860565,0.17129892110824585,0.20476460456848145,0.202495738863945,0.1917186677455902,0.20419739186763763,0.20930232107639313,0.21327282488346097,0.22064661979675287,0.24390244483947757,0.0,0.0,0.0,0.0,0.0,0.0,0.0,0.0,0.0,0.0,0.0,0.0,0.0,0.0,0.0,0.0,0.0,0.0,0.0,0.0,0.0,0.0,0.0,0.0,0.0,0.0,0.0,0.0,0.0,0.0,0.0,0.0,0.0,0.0,0.0,0.0,0.0,0.0,0.0,0.0,0.0,0.0,0.0,0.0,0.0,0.0,0.0,0.0,0.0,0.0,0.0,0.0,0.0,0.0,1.0
0.8880335688591003,0.930720806121826,0.9279216527938842,0.9104268550872802,0.8887333869934082,0.8397480845451355,0.7795661091804504,0.7095870971679688,0.6557033061981201,0.596920907497406,0.5920224189758301,0.533240020275116,0.5325402617454529,0.5192442536354065,0.5276417136192322,0.5290412902832031,0.5150454640388489,0.5409377217292786,0.5626311898231505,0.5605318546295166,0.5661301612854004,0.533240020275116,0.5262421369552612,0.5535339117050171,0.5311406850814819,0.5661301612854004,0.5605318546295166,0.5710287094116211,0.5479356050491333,0.598320484161377,0.5731280446052551,0.5990203022956848,0.6536039113998413,0.6871938705444336,0.6815955042839049,0.6431070566177368,0.7018894553184509,0.6997900605201721,0.6550034880638123,0.6843946576118469,0.6459062099456787,0.5976207256317139,0.5962211489677429,0.5472358465194702,0.5325402617454529,0.5157452821731567,0.5255423188209534,0.512246310710907,0.533240020275116,0.5073478221893312,0.5885234475135803,0.6948915123939513,0.5857242941856384,0.6543037295341492,0.8621413707733153,0.14905528724193573,0.0,0.03778866305947304,0.18614415824413297,0.35759273171424866,0.5171448588371277,0.5255423188209534,0.5451364517211914,0.5269418954849243,0.5717284679412842,0.5682295560836792,0.5584324598312378,0.5668299794197083,0.5843247175216675,0.594821572303772,0.613715887069702,0.598320484161377,0.617914617061615,0.659202218055725,0.682995080947876,0.6780965924263,0.7081875205039978,0.763470947742462,0.78656405210495,0.8530440926551818,0.9230231046676637,0.9524142742156982,1.0,0.9748075604438781,0.9727081656455993,0.9594121575355528,0.9545136690139769,0.8866339921951294,0.8229531049728394,0.7501749396324157,0.7431770563125609,0.7081875205039978,0.6648005843162537,0.659902036190033,0.6487053632736206,0.6319104433059692,0.6270118951797485,0.6095171570777893,0.5990203022956848,0.0,0.0,0.0,0.0,0.0,0.0,0.0,0.0,0.0,0.0,0.0,0.0,0.0,0.0,0.0,0.0,0.0,0.0,0.0,0.0,0.0,0.0,0.0,0.0,0.0,0.0,0.0,0.0,0.0,0.0,0.0,0.0,0.0,0.0,0.0,0.0,0.0,0.0,0.0,0.0,0.0,0.0,0.0,0.0,0.0,0.0,0.0,0.0,0.0,0.0,0.0,0.0,0.0,0.0,0.0,0.0,0.0,0.0,0.0,0.0,0.0,0.0,0.0,0.0,0.0,0.0,0.0,0.0,0.0,0.0,0.0,0.0,0.0,0.0,0.0,0.0,0.0,0.0,0.0,0.0,0.0,0.0,0.0,0.0,0.0,0.0,0.0,0.0,1.0
1.0,0.721290349960327,0.34709677100181574,0.09225806593894958,0.07032258063554764,0.31806451082229614,0.3767741918563842,0.40903225541114807,0.4270967841148376,0.42967742681503296,0.41935482621192927,0.4277419447898865,0.4290322661399841,0.43096774816513056,0.4348387122154236,0.44903224706649775,0.43677419424057007,0.4600000083446503,0.48774194717407227,0.49612903594970703,0.4967741966247559,0.4967741966247559,0.5129032135009766,0.5451613068580627,0.5729032158851624,0.5987097024917603,0.662580668926239,0.7032257914543152,0.732903242111206,0.778064489364624,0.7993548512458801,0.7896774411201477,0.7696774005889891,0.7122580409049988,0.6458064317703247,0.5722580552101135,0.4993548393249512,0.4567742049694061,0.4283871054649353,0.4051612913608551,0.39032256603240967,0.3812903165817261,0.3858064413070679,0.3864516019821167,0.3838709592819214,0.37161290645599365,0.3799999952316284,0.3722580671310425,0.35483869910240173,0.3612903356552124,0.36580646038055414,0.3541935384273529,0.35483869910240173,0.3587096631526947,0.36000001430511475,0.3593548238277436,0.366451621055603,0.3696774244308472,0.3774193525314331,0.3825806379318237,0.3838709592819214,0.37612903118133534,0.37419354915618896,0.39161291718482966,0.39483872056007385,0.39032256603240967,0.3864516019821167,0.3864516019821167,0.4116128981113434,0.4006451666355133,0.40193548798561096,0.4174193441867828,0.4051612913608551,0.4000000059604645,0.41096773743629456,0.4116128981113434,0.4187096655368805,0.40580645203590393,0.4000000059604645,0.41419354081153864,0.4148387014865875,0.4135483801364898,0.420645147562027,0.4116128981113434,0.39677420258522034,0.3858064413070679,0.40193548798561096,0.4419354796409607,0.46967741847038263,0.49354839324951166,0.5393548607826233,0.5309677124023438,0.4909677505493164,0.48774194717407227,0.5051612854003905,0.46903225779533386,0.4251613020896912,0.3987096846103668,0.3799999952316284,0.3883870840072632,0.3896774053573608,0.39290323853492737,0.39290323853492737,0.3896774053573608,0.3767741918563842,0.37612903118133534,0.4006451666355133,0.5696774125099182,0.5735483765602112,0.681935489177704,0.9987096786499025,0.855483889579773,0.43999999761581426,0.11548387259244917,0.0,0.24838709831237793,0.35032257437705994,0.3683871030807495,0.4187096655368805,0.4335483908653259,0.4354838728904724,0.4580645263195038,0.44580644369125366,0.4541935622692108,0.4419354796409607,0.44903224706649775,0.4625806510448456,0.4638709723949432,0.4754838645458221,0.4903225898742676,0.5032258033752441,0.5012903213500977,0.5374193787574768,0.5464516282081604,0.5870967507362366,0.6096774339675903,0.6341935396194458,0.6806451678276062,0.721290349960327,0.7574193477630614,0.7851613163948059,0.0,0.0,0.0,0.0,0.0,0.0,0.0,0.0,0.0,0.0,0.0,0.0,0.0,0.0,0.0,0.0,0.0,0.0,0.0,0.0,0.0,0.0,0.0,0.0,0.0,0.0,0.0,0.0,0.0,0.0,0.0,0.0,0.0,0.0,0.0,0.0,0.0,0.0,0.0,0.0,0.0,0.0,0.0,0.0,0.0,0.0,0.0
1.0,0.9950980544090272,0.6304675936698914,0.2903469204902649,0.07013574987649918,0.0,0.05279034748673439,0.0984162911772728,0.09426847845315933,0.09728506952524184,0.09539970010519028,0.10067873448133469,0.101055808365345,0.1063348427414894,0.1089743599295616,0.1085972860455513,0.11500754207372664,0.12066365033388136,0.1289592832326889,0.13197587430477142,0.13763198256492615,0.1463046818971634,0.15120664238929749,0.16101056337356567,0.17496229708194733,0.18778280913829803,0.20248869061470032,0.22096531093120572,0.24547511339187625,0.267722487449646,0.29638010263443,0.3212669789791107,0.3480392098426819,0.3631221652030945,0.38197585940361023,0.3861236870288849,0.3868778347969055,0.3763197660446167,0.35520362854003906,0.3201357424259186,0.2801659107208252,0.24886877834796903,0.21078431606292725,0.18853695690631864,0.17043741047382355,0.15082956850528717,0.1387632042169571,0.13499246537685394,0.12556561827659607,0.12368024140596388,0.12330316752195358,0.12179487198591232,0.11915535479784012,0.1138763204216957,0.12179487198591232,0.11689291149377821,0.1134992465376854,0.11085972934961318,0.1138763204216957,0.1138763204216957,0.11802413314580916,0.11840120702981947,0.11953242868185043,0.11726998537778854,0.11425339430570602,0.12066365033388136,0.11689291149377821,0.11689291149377821,0.12066365033388136,0.11764705926179884,0.11764705926179884,0.11576168984174728,0.11500754207372664,0.11726998537778854,0.11576168984174728,0.11726998537778854,0.12066365033388136,0.11990950256586073,0.1112368032336235,0.11010558158159256,0.11010558158159256,0.11010558158159256,0.1063348427414894,0.10558069497346878,0.10822021216154099,0.1089743599295616,0.10671191662549973,0.1089743599295616,0.10558069497346878,0.10444947332143784,0.10784313827753068,0.1036953255534172,0.10256410390138626,0.10256410390138626,0.10520362108945847,0.10482654720544816,0.1036953255534172,0.11274509876966476,0.11802413314580916,0.1440422385931015,0.16025641560554504,0.17533937096595764,0.22209653258323667,0.2341628968715668,0.23114630579948425,0.23906485736370087,0.19645550847053528,0.19079940021038053,0.18476621806621552,0.1312217265367508,0.09992458671331404,0.08559577912092207,0.07767722755670547,0.07993967086076736,0.07956259697675705,0.08220211416482925,0.05957767739892006,0.0656108632683754,0.1463046818971634,0.5015082955360413,0.9777526259422302,0.9660633206367492,0.6874057054519653,0.35444948077201843,0.12104072421789168,0.010180995799601078,0.061463046818971634,0.11689291149377821,0.11274509876966476,0.11236802488565444,0.11500754207372664,0.11915535479784012,0.12254901975393297,0.12179487198591232,0.13046757876873016,0.13951735198497772,0.1463046818971634,0.14856712520122528,0.15271493792533875,0.15497738122940063,0.16063348948955536,0.17006033658981323,0.17345400154590607,0.18325792253017423,0.1972096562385559,0.2126696854829788,0.22963801026344297,0.25150829553604126,0.2733785808086395,0.2986425459384918,0.322775274515152,0.0,0.0,0.0,0.0,0.0,0.0,0.0,0.0,0.0,0.0,0.0,0.0,0.0,0.0,0.0,0.0,0.0,0.0,0.0,0.0,0.0,0.0,0.0,0.0,0.0,0.0,0.0,0.0,0.0,0.0,0.0,0.0,0.0,0.0,0.0,0.0,0.0
1.0,0.8441098332405089,0.42869797348976135,0.3507528901100158,0.15766164660453796,0.0,0.044286981225013726,0.2754650115966797,0.42515501379966736,0.45349866151809687,0.43224093317985535,0.4517271816730499,0.4366696178913117,0.5093002915382385,0.5225863456726073,0.43224093317985535,0.5155004262924193,0.5296722650527954,0.5128432512283325,0.5783879756927489,0.5155004262924193,0.5562444925308228,0.5332152247428894,0.5553587079048157,0.5199291706085205,0.6262179017066956,0.5721877813339232,0.5916740298271179,0.5420726537704468,0.592559814453125,0.6324180960655212,0.5881310701370239,0.5757307410240173,0.6448184251785278,0.6775907874107361,0.6926483511924744,0.6687334179878235,0.6616474986076354,0.6023029088973999,0.5447298288345337,0.5473870635032654,0.5296722650527954,0.5093002915382385,0.4366696178913117,0.5066430568695068,0.5110717415809631,0.4712134599685669,0.5562444925308228,0.5101860165596008,0.49424269795417786,0.5039858222007751,0.49158546328544617,0.5031000971794128,0.4898139834403992,0.5429583787918091,0.4977856576442719,0.49158546328544617,0.5004428625106812,0.5385296940803528,0.4818423390388489,0.4862710237503052,0.4995571374893189,0.5022143721580504,0.4880425035953522,0.4898139834403992,0.4871567785739898,0.49601417779922485,0.48361381888389593,0.441098302602768,0.5217006206512451,0.5907883048057556,0.5757307410240173,0.6979628205299377,0.6669619083404541,0.71656334400177,0.75199294090271,0.7466784715652467,0.6970770359039307,0.6430469155311584,0.6147032976150513,0.5190433859825134,0.4685562551021576,0.4720992147922516,0.42161205410957336,0.4366696178913117,0.3950398564338684,0.2568644881248474,0.1310894638299942,0.589016854763031,0.9477413892745972,0.7050487399101257,0.30646589398384094,0.23294951021671292,0.07351638376712799,0.013286094181239603,0.15234720706939697,0.3436669707298279,0.4269264936447144,0.4490699768066406,0.4588131010532379,0.4720992147922516,0.46324181556701666,0.5039858222007751,0.4614703357219696,0.5004428625106812,0.4738706946372986,0.5473870635032654,0.5624446272850037,0.5394154191017151,0.5341009497642517,0.5606731772422792,0.5518157482147217,0.0,0.0,0.0,0.0,0.0,0.0,0.0,0.0,0.0,0.0,0.0,0.0,0.0,0.0,0.0,0.0,0.0,0.0,0.0,0.0,0.0,0.0,0.0,0.0,0.0,0.0,0.0,0.0,0.0,0.0,0.0,0.0,0.0,0.0,0.0,0.0,0.0,0.0,0.0,0.0,0.0,0.0,0.0,0.0,0.0,0.0,0.0,0.0,0.0,0.0,0.0,0.0,0.0,0.0,0.0,0.0,0.0,0.0,0.0,0.0,0.0,0.0,0.0,0.0,0.0,0.0,0.0,0.0,0.0,0.0,0.0,0.0,0.0,0.0,0.0,1.0
1.0,0.7604949474334717,0.505965530872345,0.06142288818955421,0.08572690933942793,0.14361466467380524,0.10340256243944168,0.11268228292465209,0.1003093272447586,0.1060539111495018,0.1060539111495018,0.09102960675954817,0.10075121372938156,0.0861688032746315,0.08263367414474486,0.09323906153440477,0.08837825804948807,0.09633230417966841,0.08440123498439789,0.0901458263397217,0.09058771282434464,0.07821475714445114,0.09102960675954817,0.07467962801456451,0.07026071846485138,0.09058771282434464,0.09633230417966841,0.11842686682939528,0.12991604208946228,0.1449403464794159,0.1581970900297165,0.145824134349823,0.16305789351463315,0.1524524986743927,0.1573133021593094,0.17012815177440643,0.15466195344924927,0.16570924222469327,0.15289439260959625,0.1524524986743927,0.14714980125427246,0.13168360292911527,0.14317278563976288,0.1277065873146057,0.1374281942844391,0.1440565586090088,0.13212549686431885,0.1634997725486755,0.1449403464794159,0.14184710383415222,0.14803358912467957,0.13654440641403198,0.15289439260959625,0.13787008821964264,0.1467079073190689,0.15289439260959625,0.14228899776935575,0.1581970900297165,0.14803358912467957,0.1400795429944992,0.14361466467380524,0.13124170899391174,0.16880246996879575,0.17145381867885587,0.19973486661911008,0.1882456988096237,0.18294300138950348,0.17764030396938324,0.1780821979045868,0.17189571261405945,0.1789659708738327,0.1343349516391754,0.15642951428890228,0.13168360292911527,0.11842686682939528,0.10517013072967528,0.08882015198469163,0.10384445637464523,0.09147150069475173,0.0919133871793747,0.208130806684494,0.4295183420181274,0.7892178297042847,0.9116217494010925,0.5704816579818726,0.14184710383415222,0.0,0.0861688032746315,0.07070260494947433,0.06098099797964096,0.06495802104473114,0.05877154320478439,0.07423773407936096,0.06274856626987457,0.07158639281988144,0.07335395365953445,0.06805125623941422,0.0786566510796547,0.0,0.0,0.0,0.0,0.0,0.0,0.0,0.0,0.0,0.0,0.0,0.0,0.0,0.0,0.0,0.0,0.0,0.0,0.0,0.0,0.0,0.0,0.0,0.0,0.0,0.0,0.0,0.0,0.0,0.0,0.0,0.0,0.0,0.0,0.0,0.0,0.0,0.0,0.0,0.0,0.0,0.0,0.0,0.0,0.0,0.0,0.0,0.0,0.0,0.0,0.0,0.0,0.0,0.0,0.0,0.0,0.0,0.0,0.0,0.0,0.0,0.0,0.0,0.0,0.0,0.0,0.0,0.0,0.0,0.0,0.0,0.0,0.0,0.0,0.0,0.0,0.0,0.0,0.0,0.0,0.0,0.0,0.0,0.0,0.0,0.0,0.0,0.0,0.0,1.0
0.9686761498451234,0.7854610085487365,0.43676123023033137,0.37293145060539246,0.31501182913780207,0.2813238799571991,0.2641843855381012,0.2813238799571991,0.2541371285915375,0.26536643505096436,0.30378249287605286,0.3297872245311737,0.30082741379737854,0.3091016411781311,0.2872340381145477,0.3404255211353302,0.3079196214675904,0.3232860565185547,0.33096927404403687,0.3735224604606629,0.3723404109477997,0.326241135597229,0.3764775395393372,0.3605200946331024,0.38297873735427856,0.35401892662048334,0.3853427767753601,0.3752955198287964,0.3640661835670471,0.37706854939460754,0.3167848587036133,0.3445626497268677,0.31501182913780207,0.29373523592948914,0.3120567500591278,0.3339243531227112,0.326241135597229,0.28014183044433594,0.2635933756828308,0.2931441962718964,0.31382977962493896,0.3026004731655121,0.3232860565185547,0.34278959035873413,0.30141845345497126,0.29373523592948914,0.32210400700569153,0.3096926808357239,0.28486996889114374,0.2819148898124695,0.29669031500816345,0.28664302825927734,0.3144207894802093,0.28014183044433594,0.30378249287605286,0.3067376017570496,0.29728132486343384,0.2742316722869873,0.2505910098552704,0.31501182913780207,0.2635933756828308,0.25591015815734863,0.2943262457847595,0.2872340381145477,0.3043735325336456,0.3380614519119262,0.3936170339584351,0.4202127754688263,0.3658392429351807,0.4521276652812958,0.4716311991214752,0.4296690225601196,0.4408983588218689,0.3481087386608124,0.3274231553077698,0.3079196214675904,0.29018911719322205,0.2742316722869873,0.26595744490623474,0.2665484547615051,0.27245864272117615,0.10992907732725143,0.0,0.1182033121585846,0.6495271921157837,0.9994089603424072,1.0,0.6507092118263245,0.43794324994087214,0.3611111044883728,0.3605200946331024,0.3989361822605133,0.3404255211353302,0.32683214545249933,0.32860520482063293,0.3504728078842163,0.34929078817367554,0.3758865296840668,0.32683214545249933,0.3398345112800598,0.3918439745903015,0.387706845998764,0.0,0.0,0.0,0.0,0.0,0.0,0.0,0.0,0.0,0.0,0.0,0.0,0.0,0.0,0.0,0.0,0.0,0.0,0.0,0.0,0.0,0.0,0.0,0.0,0.0,0.0,0.0,0.0,0.0,0.0,0.0,0.0,0.0,0.0,0.0,0.0,0.0,0.0,0.0,0.0,0.0,0.0,0.0,0.0,0.0,0.0,0.0,0.0,0.0,0.0,0.0,0.0,0.0,0.0,0.0,0.0,0.0,0.0,0.0,0.0,0.0,0.0,0.0,0.0,0.0,0.0,0.0,0.0,0.0,0.0,0.0,0.0,0.0,0.0,0.0,0.0,0.0,0.0,0.0,0.0,0.0,0.0,0.0,0.0,0.0,1.0
1.0,0.38348081707954407,0.03303834795951843,0.08849557489156723,0.1628318578004837,0.2466076761484146,0.2507374584674835,0.2648967504501343,0.26784661412239075,0.27256637811660767,0.24896755814552307,0.2778761088848114,0.29026550054550165,0.28849557042121887,0.28377580642700195,0.28790560364723206,0.3091445565223694,0.3073746263980865,0.29970502853393555,0.3020648956298828,0.3321533799171448,0.3286135792732239,0.3457227051258087,0.35398229956626887,0.3852507472038269,0.43480825424194336,0.44601771235466,0.4731563329696655,0.49852508306503296,0.5097345113754272,0.5268436670303345,0.5339233279228209,0.5351032614707947,0.5044247508049011,0.4631268382072449,0.4247787594795227,0.4023598730564117,0.3657817244529724,0.3362831771373749,0.3185840845108032,0.3292035460472107,0.2943952679634094,0.2938053011894226,0.3085545599460602,0.28377580642700195,0.29144543409347534,0.2825958728790283,0.2979350984096527,0.30324482917785645,0.3020648956298828,0.28731563687324524,0.2861357033252716,0.30678465962409973,0.2973451316356659,0.2979350984096527,0.2896755039691925,0.3050147593021393,0.310324490070343,0.29321533441543574,0.2772861421108246,0.2849557399749756,0.2867256700992584,0.2820059061050415,0.28318583965301514,0.26135692000389094,0.2778761088848114,0.28318583965301514,0.25958701968193054,0.28318583965301514,0.25958701968193054,0.26430678367614746,0.2696165144443512,0.262536883354187,0.2566371560096741,0.2495575249195099,0.3286135792732239,0.33569321036338806,0.3445427715778351,0.37109145522117615,0.3634218275547028,0.36755162477493286,0.3616519272327423,0.30442479252815247,0.25840708613395685,0.2772861421108246,0.2466076761484146,0.25368732213974,0.21828909218311307,0.22949852049350736,0.22300885617733,0.2112094461917877,0.22713863849639887,0.21238937973976132,0.2218289077281952,0.2218289077281952,0.205309733748436,0.15693216025829315,0.16047197580337524,0.3339233100414276,0.5958701968193054,0.7486725449562072,0.9976401329040528,0.37581121921539307,0.0,0.027138642966747284,0.12507374584674835,0.1929203569889069,0.20471976697444916,0.21238937973976132,0.19174040853977203,0.20943953096866608,0.24070796370506287,0.2306784689426422,0.25250738859176636,0.21651917695999143,0.21710914373397827,0.22536873817443848,0.24483776092529297,0.0,0.0,0.0,0.0,0.0,0.0,0.0,0.0,0.0,0.0,0.0,0.0,0.0,0.0,0.0,0.0,0.0,0.0,0.0,0.0,0.0,0.0,0.0,0.0,0.0,0.0,0.0,0.0,0.0,0.0,0.0,0.0,0.0,0.0,0.0,0.0,0.0,0.0,0.0,0.0,0.0,0.0,0.0,0.0,0.0,0.0,0.0,0.0,0.0,0.0,0.0,0.0,0.0,0.0,0.0,0.0,0.0,0.0,0.0,0.0,0.0,0.0,0.0,0.0,0.0,0.0,0.0,0.0,0.0,0.0
0.9779527783393859,0.7480314970016478,0.21811023354530332,0.027952756732702252,0.05472441017627716,0.12204724550247192,0.12007874250411989,0.11614172905683516,0.11377952992916109,0.11181102693080902,0.10629921406507492,0.11181102693080902,0.10944882035255432,0.11181102693080902,0.11023622006177902,0.11062992364168169,0.11653543263673782,0.12755905091762543,0.13070866465568542,0.13385826349258423,0.13346455991268155,0.13937008380889893,0.14212597906589508,0.14921259880065915,0.15236219763755798,0.16496062278747559,0.183858260512352,0.20708660781383517,0.23070865869522092,0.2586614191532135,0.2893700897693634,0.32598423957824707,0.3594488203525543,0.3956692814826965,0.421653538942337,0.4433070719242096,0.44488188624382013,0.4244094491004944,0.3751968443393707,0.31181102991104126,0.25157481431961054,0.20787401497364044,0.17322835326194763,0.14645668864250183,0.12992125749588013,0.11968503892421722,0.11299212276935576,0.10984251648187636,0.10629921406507492,0.10314960777759552,0.10157480090856552,0.10393700748682022,0.1055118143558502,0.11102361977100372,0.11535432934761047,0.11259842664003372,0.11732283234596252,0.12047243863344193,0.11929133534431456,0.11811023950576782,0.11692913621664049,0.11732283234596252,0.11929133534431456,0.11377952992916109,0.11141732335090636,0.10866142064332962,0.10787401348352432,0.10787401348352432,0.10275590419769288,0.09921260178089139,0.10314960777759552,0.09960629791021347,0.09763779491186142,0.09448818862438202,0.09330708533525467,0.08858267962932585,0.08582676947116852,0.08543307334184647,0.0850393697619438,0.0850393697619438,0.078740157186985,0.08188976347446442,0.08188976347446442,0.0850393697619438,0.11456692963838576,0.13661417365074155,0.13582676649093628,0.13307087123394012,0.1566929072141647,0.14448818564414978,0.12401574850082396,0.10866142064332962,0.10433071106672286,0.096062995493412,0.07992126047611235,0.07244094461202621,0.06732283532619476,0.06574802845716476,0.06023621931672096,0.06456693261861801,0.05708661302924156,0.05826771631836891,0.059842519462108605,0.06732283532619476,0.06732283532619476,0.06850393861532211,0.06141732260584831,0.0,0.03818897530436516,0.2023622095584869,0.6637795567512512,1.0,0.7661417126655578,0.1834645718336105,0.017716536298394203,0.05826771631836891,0.12834645807743073,0.10944882035255432,0.09645669162273408,0.09566929191350938,0.09803149849176407,0.09527558833360673,0.09881889820098878,0.10393700748682022,0.10629921406507492,0.11102361977100372,0.11496063321828842,0.11850393563508987,0.12244094163179396,0.12559054791927335,0.13188976049423215,0.13346455991268155,0.14094488322734833,0.14448818564414978,0.15314960479736328,0.0,0.0,0.0,0.0,0.0,0.0,0.0,0.0,0.0,0.0,0.0,0.0,0.0,0.0,0.0,0.0,0.0,0.0,0.0,0.0,0.0,0.0,0.0,0.0,0.0,0.0,0.0,0.0,0.0,0.0,0.0,0.0,0.0,0.0,0.0,0.0,0.0,0.0,0.0,0.0,0.0,0.0,0.0,0.0,0.0,0.0,0.0,0.0,0.0,0.0,0.0,0.0,0.0
1.0,0.5160213708877563,0.23230974376201627,0.0,0.1421895921230316,0.30841121077537537,0.3424566090106964,0.371829092502594,0.3911882638931274,0.4105474054813385,0.4172229766845703,0.4105474054813385,0.42122828960418707,0.4218958616256714,0.4559412598609924,0.4706275165081024,0.46595460176467896,0.48998665809631353,0.5,0.503337800502777,0.5220293998718262,0.5393858551979065,0.5754339098930359,0.6108143925666809,0.657543420791626,0.7009345889091492,0.7329773306846618,0.7890520691871643,0.8230974674224852,0.8324432373046875,0.8558077216148376,0.8564752936363219,0.8431241512298584,0.7650200128555299,0.6849132180213928,0.6214953064918518,0.5467289686203003,0.515353798866272,0.48397862911224365,0.4612817168235778,0.4345794320106506,0.43524700403213507,0.43391188979148865,0.4399198889732361,0.4345794320106506,0.4432576894760132,0.4272363185882568,0.4092122912406921,0.41855809092521673,0.4392523467540741,0.4519359171390533,0.46728971600532526,0.43591454625129694,0.43591454625129694,0.4425901174545288,0.44859811663627613,0.46728971600532526,0.46328437328338623,0.4679572880268097,0.46728971600532526,0.4686248302459717,0.46528705954551697,0.43658211827278137,0.42656874656677246,0.42656874656677246,0.4332443177700042,0.4399198889732361,0.44993323087692255,0.4392523467540741,0.43858477473258967,0.43724966049194336,0.4259012043476105,0.4472630321979522,0.45527368783950806,0.4479305744171143,0.4439252316951752,0.4285714328289032,0.43591454625129694,0.47596794366836553,0.4866488575935364,0.5120159983634949,0.5186915993690491,0.5620827674865723,0.5687583684921265,0.5520694255828857,0.5487316250801086,0.515353798866272,0.47396528720855713,0.4272363185882568,0.3871829211711884,0.3604806363582611,0.3457943797111511,0.3331108093261719,0.33444592356681824,0.3351134955883026,0.3464619517326355,0.3391188383102417,0.35246995091438293,0.44859811663627613,0.5407209396362305,0.6154873371124268,0.8704940080642701,0.9592790603637696,0.6094793081283569,0.27303069829940796,0.047396529465913766,0.0714285746216774,0.28771695494651794,0.3444592654705048,0.36515355110168457,0.38384512066841125,0.401869148015976,0.42056074738502497,0.4105474054813385,0.40720960497856146,0.41655540466308594,0.4285714328289032,0.43524700403213507,0.4532710313796997,0.44859811663627613,0.4586114883422852,0.48064085841178894,0.5086782574653625,0.0,0.0,0.0,0.0,0.0,0.0,0.0,0.0,0.0,0.0,0.0,0.0,0.0,0.0,0.0,0.0,0.0,0.0,0.0,0.0,0.0,0.0,0.0,0.0,0.0,0.0,0.0,0.0,0.0,0.0,0.0,0.0,0.0,0.0,0.0,0.0,0.0,0.0,0.0,0.0,0.0,0.0,0.0,0.0,0.0,0.0,0.0,0.0,0.0,0.0,0.0,0.0,0.0,0.0,0.0,0.0,0.0,0.0,0.0,0.0,0.0,0.0,0.0,0.0,0.0
0.9159393906593322,0.7455213665962219,0.18925125896930692,0.049609553068876266,0.0,0.008727606385946276,0.10932476073503494,0.14515388011932373,0.15250344574451447,0.15847496688365936,0.16582453250885007,0.17455214262008667,0.17960496246814728,0.1837390959262848,0.18006430566310883,0.18144235014915464,0.19430409371852875,0.2067064791917801,0.2103812545537949,0.2076251655817032,0.2177308201789856,0.21681213378906247,0.21819016337394717,0.22324299812316892,0.2328892946243286,0.24299494922161105,0.249885156750679,0.2655029892921448,0.28112080693244934,0.30179145932197565,0.3348644971847534,0.3647221028804779,0.38677078485488886,0.4129536151885986,0.4345429539680481,0.4501607716083527,0.462563157081604,0.47037208080291754,0.4593477249145508,0.45062011480331426,0.4258153438568115,0.3789618611335754,0.32889297604560846,0.28433623909950256,0.2526412606239319,0.21910886466503143,0.18419843912124637,0.17409278452396393,0.1589343100786209,0.16766192018985748,0.16214974224567413,0.15112540125846863,0.14331649243831635,0.13964170217514038,0.15158474445343015,0.15434083342552185,0.1589343100786209,0.16260910034179688,0.16949930787086487,0.17041800916194916,0.1768488734960556,0.18833257257938385,0.1837390959262848,0.1819016933441162,0.18649516999721527,0.1759301722049713,0.18465778231620789,0.18144235014915464,0.18327973783016205,0.1878732144832611,0.18511714041233063,0.1874138712882996,0.20211300253868103,0.2039503902196884,0.19660082459449768,0.20211300253868103,0.20303168892860407,0.19338539242744443,0.19338539242744443,0.19568213820457456,0.19246669113636017,0.19522278010845184,0.18649516999721527,0.19338539242744443,0.19568213820457456,0.20486909151077273,0.23932015895843503,0.26228755712509155,0.2705558240413666,0.29398253560066223,0.31465318799018854,0.3114377558231354,0.27790537476539606,0.25539734959602356,0.24758842587471008,0.23610472679138184,0.2076251655817032,0.20257234573364255,0.20303168892860407,0.19614148139953613,0.19981625676155088,0.18879191577434537,0.19614148139953613,0.19797886908054352,0.2007349580526352,0.17041800916194916,0.12034910172224043,0.24345429241657257,0.6495176553726196,1.0,0.821773111820221,0.2540192902088165,0.13183279335498807,0.08222324401140213,0.10335323959589005,0.19660082459449768,0.23656408488750455,0.24621038138866425,0.2572347223758697,0.2558566927909851,0.2544786334037781,0.26412492990493774,0.26825907826423645,0.27101516723632807,0.268718421459198,0.26917776465415955,0.2765273451805115,0.28525492548942566,0.2834175527095794,0.29765734076499933,0.30133211612701416,0.305925577878952,0.31832796335220337,0.3307303488254547,0.33532384037971497,0.3477262258529663,0.36518144607543945,0.3899862170219421,0.40284794569015503,0.0,0.0,0.0,0.0,0.0,0.0,0.0,0.0,0.0,0.0,0.0,0.0,0.0,0.0,0.0,0.0,0.0,0.0,0.0,0.0,0.0,0.0,0.0,0.0,0.0,0.0,0.0,0.0,0.0,0.0,0.0,0.0,0.0,0.0,0.0,0.0,0.0,0.0,0.0,0.0,0.0,0.0,0.0,0.0,0.0,0.0,0.0,0.0,0.0
0.9861019253730773,0.9781601428985597,1.0,0.9867637157440184,0.9278623461723328,0.9060224890708924,0.8537392616271972,0.7802779674530029,0.7425546050071715,0.7028458118438721,0.6611515283584595,0.65850430727005,0.6432825922966003,0.6307081580162048,0.6095300912857056,0.6240900158882141,0.6280608773231505,0.6128391623497009,0.6273990869522095,0.640635311603546,0.6353408098220825,0.6512243747711182,0.6598279476165771,0.6439443826675415,0.6664460897445679,0.6551952362060547,0.6459298729896545,0.6452680230140686,0.6373263001441956,0.6426208019256592,0.6637988090515137,0.6604897379875183,0.6644605994224548,0.7187293171882628,0.7518199682235717,0.7597617506980896,0.7544672489166259,0.7180675268173218,0.7392455339431762,0.7193911075592041,0.710125744342804,0.7392455339431762,0.6882858872413635,0.6591660976409912,0.6115155816078186,0.5638650059700012,0.5579086542129517,0.5565850138664246,0.5486432909965515,0.5241562128067017,0.5387160778045654,0.5268034338951111,0.508934497833252,0.6863004565238953,0.6386498808860779,0.614162802696228,0.7842488288879393,0.2614162862300873,0.0,0.06618133932352066,0.1998676359653473,0.3282594382762909,0.5023163557052612,0.561879575252533,0.5890138745307921,0.5876902937889099,0.5989410877227783,0.6459298729896545,0.6717405915260315,0.6525479555130005,0.6472534537315369,0.6598279476165771,0.6525479555130005,0.6690933108329773,0.692918598651886,0.6710787415504456,0.6995367407798767,0.7174056768417358,0.7392455339431762,0.7577763199806212,0.8054268956184387,0.8424884080886842,0.8755790591239929,0.9020516276359558,0.9397749900817872,0.9543348550796509,0.9821310639381408,0.9543348550796509,0.9053606986999512,0.8722700476646422,0.8272666931152343,0.763070821762085,0.7273328900337219,0.7035076022148132,0.6505625247955321,0.6432825922966003,0.622766375541687,0.5976174473762512,0.6101919412612915,0.0,0.0,0.0,0.0,0.0,0.0,0.0,0.0,0.0,0.0,0.0,0.0,0.0,0.0,0.0,0.0,0.0,0.0,0.0,0.0,0.0,0.0,0.0,0.0,0.0,0.0,0.0,0.0,0.0,0.0,0.0,0.0,0.0,0.0,0.0,0.0,0.0,0.0,0.0,0.0,0.0,0.0,0.0,0.0,0.0,0.0,0.0,0.0,0.0,0.0,0.0,0.0,0.0,0.0,0.0,0.0,0.0,0.0,0.0,0.0,0.0,0.0,0.0,0.0,0.0,0.0,0.0,0.0,0.0,0.0,0.0,0.0,0.0,0.0,0.0,0.0,0.0,0.0,0.0,0.0,0.0,0.0,0.0,0.0,0.0,0.0,0.0,0.0,1.0
0.9264674186706544,0.4669963419437408,0.08514297753572464,0.035046227276325226,0.06751236319541931,0.05805203318595886,0.044721566140651696,0.04278649762272834,0.04063642397522926,0.03956138342618942,0.044721566140651696,0.046226616948843,0.04644162580370903,0.05181681364774704,0.055041927844285965,0.06278219819068909,0.06407224386930466,0.06643732637166977,0.07460761070251466,0.07439260184764862,0.08385293185710907,0.08514297753572464,0.0903031602501869,0.10062351822853088,0.1062137186527252,0.12018920481204987,0.13222962617874143,0.14599010348320007,0.16254569590091705,0.1780262291431427,0.19780692458152768,0.21242743730545044,0.224467858672142,0.23973339796066284,0.24295850098133087,0.2425284832715988,0.22360782325267792,0.2001720070838928,0.1711459904909134,0.13975489139556885,0.11803913116455078,0.09739840775728224,0.08213287591934205,0.07761771976947784,0.07073747366666794,0.07009245455265045,0.06880240887403488,0.06880240887403488,0.06708234548568726,0.06579229980707169,0.06600730866193771,0.06794238090515137,0.06923242658376694,0.0681573823094368,0.06837239116430283,0.07009245455265045,0.06880240887403488,0.0696624368429184,0.06858740001916885,0.07009245455265045,0.07052246481180191,0.06923242658376694,0.07030746340751648,0.07202751934528351,0.06944742798805237,0.06579229980707169,0.06579229980707169,0.06385723501443863,0.06557729840278625,0.06493227183818817,0.06794238090515137,0.06708234548568726,0.06278219819068909,0.06536228954792023,0.06428725272417068,0.06407224386930466,0.06256718933582306,0.06342721730470657,0.06622231751680374,0.06471726298332214,0.06493227183818817,0.0666523352265358,0.0651472806930542,0.06536228954792023,0.06385723501443863,0.0651472806930542,0.06256718933582306,0.06106213852763176,0.06536228954792023,0.06321221590042114,0.06579229980707169,0.06600730866193771,0.06299720704555511,0.06557729840278625,0.06342721730470657,0.06901741772890091,0.06321221590042114,0.06686734408140182,0.0681573823094368,0.06643732637166977,0.06708234548568726,0.06579229980707169,0.06901741772890091,0.06923242658376694,0.06407224386930466,0.06729735434055328,0.06751236319541931,0.07396259158849715,0.08772306889295578,0.10900881886482237,0.11696409434080124,0.11459901183843613,0.1287895143032074,0.13201461732387543,0.13072457909584043,0.11889915913343428,0.09847344458103183,0.08987314254045486,0.08320791274309158,0.06342721730470657,0.06041711568832397,0.056761987507343285,0.05547194182872772,0.056761987507343285,0.0522468276321888,0.055041927844285965,0.04816168546676636,0.0,0.06794238090515137,0.21414749324321744,0.6213717460632324,1.0,0.7250053882598878,0.19501182436943051,0.06708234548568726,0.09997849911451341,0.09911847114562988,0.08041281253099442,0.0750376284122467,0.07138250023126602,0.07052246481180191,0.07159750908613205,0.07525263726711273,0.08213287591934205,0.07546763867139816,0.08148784935474396,0.08621801435947418,0.08815308660268782,0.0930982604622841,0.09288325160741806,0.10105353593826293,0.1038486361503601,0.10707374662160872,0.11481402069330215,0.0,0.0,0.0,0.0,0.0,0.0,0.0,0.0,0.0,0.0,0.0,0.0,0.0,0.0,0.0,0.0,0.0,0.0,0.0,0.0,0.0,0.0,0.0,0.0,0.0,0.0,0.0,0.0,0.0,0.0,0.0,0.0,0.0,0.0
1.0,0.5897976160049438,0.2748735249042511,0.016441822052001953,0.06365936249494553,0.07630691677331923,0.0497470498085022,0.03583473712205887,0.04510961100459098,0.03878583386540413,0.04932546243071556,0.05269814655184746,0.050168633460998535,0.06155143305659294,0.054806072264909744,0.06028667837381362,0.054384484887123115,0.05101180449128151,0.06576728820800781,0.048903878778219216,0.0531197302043438,0.05185497552156448,0.054384484887123115,0.07883642613887785,0.0712478905916214,0.0927487388253212,0.09822934120893478,0.10455311834812164,0.14881956577301023,0.15134906768798828,0.16652613878250122,0.1505059003829956,0.14460371434688568,0.15303541719913483,0.12858347594738007,0.13406407833099365,0.1302698105573654,0.1222596988081932,0.13659359514713287,0.11214165389537813,0.1062394604086876,0.10708262771368025,0.08979763835668564,0.09907251596450803,0.09148398041725159,0.1041315346956253,0.08979763835668564,0.0927487388253212,0.09822934120893478,0.09021922200918195,0.09317032247781752,0.09612141549587248,0.08347386121749878,0.09696459025144576,0.09317032247781752,0.09232714772224426,0.1062394604086876,0.11635750532150269,0.14755479991436005,0.15514333546161652,0.15682968497276306,0.15893760323524475,0.15219224989414215,0.1707419902086258,0.1403878629207611,0.13069139420986176,0.13827992975711823,0.11467116326093672,0.13827992975711823,0.09148398041725159,0.08516020327806471,0.08263069391250609,0.08895447105169296,0.07967959344387054,0.08811129629611969,0.31281620264053345,0.5084317326545715,0.9346542954444883,0.5577571392059326,0.3676222562789917,0.012225969694554804,0.0,0.06155143305659294,0.06239460408687592,0.03414839878678322,0.03499156981706619,0.04384485632181168,0.03878583386540413,0.06534569710493088,0.04510961100459098,0.05101180449128151,0.048903878778219216,0.0,0.0,0.0,0.0,0.0,0.0,0.0,0.0,0.0,0.0,0.0,0.0,0.0,0.0,0.0,0.0,0.0,0.0,0.0,0.0,0.0,0.0,0.0,0.0,0.0,0.0,0.0,0.0,0.0,0.0,0.0,0.0,0.0,0.0,0.0,0.0,0.0,0.0,0.0,0.0,0.0,0.0,0.0,0.0,0.0,0.0,0.0,0.0,0.0,0.0,0.0,0.0,0.0,0.0,0.0,0.0,0.0,0.0,0.0,0.0,0.0,0.0,0.0,0.0,0.0,0.0,0.0,0.0,0.0,0.0,0.0,0.0,0.0,0.0,0.0,0.0,0.0,0.0,0.0,0.0,0.0,0.0,0.0,0.0,0.0,0.0,0.0,0.0,0.0,0.0,0.0,0.0,0.0,0.0,0.0,1.0
1.0,0.8879765272140504,0.35249266028404236,0.0,0.05982404574751854,0.1765395849943161,0.11964809149503708,0.05747800692915917,0.006451612804085016,0.008797653950750828,0.05513196438550949,0.07448680698871613,0.06158357858657837,0.03812316805124282,0.03812316805124282,0.08797653764486314,0.10557185113430025,0.09794721752405167,0.07331378012895584,0.07390028983354568,0.13255131244659424,0.14956012368202207,0.14604105055332184,0.1173020526766777,0.116129033267498,0.19002932310104367,0.21466276049613953,0.21466276049613953,0.20175953209400177,0.19530791044235227,0.27390030026435846,0.307331383228302,0.3032258152961731,0.26217007637023926,0.24340176582336423,0.290909081697464,0.3020527958869934,0.283284455537796,0.22228738665580747,0.1835777163505554,0.1994134932756424,0.18768328428268433,0.153665691614151,0.10850439965724944,0.09794721752405167,0.13137829303741455,0.14662756025791168,0.129618763923645,0.09384164214134216,0.08914955705404282,0.13431085646152496,0.14956012368202207,0.13548387587070465,0.10733138024806976,0.09736070036888121,0.1431085020303726,0.153665691614151,0.12492668628692626,0.10029325634241104,0.08680351823568344,0.1319648027420044,0.1548387110233307,0.1184750720858574,0.10146627575159071,0.08680351823568344,0.12844574451446533,0.15073314309120178,0.12375366687774658,0.09266862273216248,0.09501466155052184,0.1348973661661148,0.1724340170621872,0.2117302119731903,0.2070381194353104,0.20527859032154083,0.25747799873352045,0.32140761613845825,0.32140761613845825,0.26334309577941895,0.23167155683040616,0.2563049793243408,0.2651026248931885,0.19589443504810333,0.11378299444913864,0.07800586521625519,0.10967741906642912,0.1255131959915161,0.10205278545618056,0.06568914651870728,0.05982404574751854,0.13724340498447418,0.41466274857521057,0.7061583399772644,0.9313783049583437,0.9665688872337341,0.6979472041130066,0.3032258152961731,0.19002932310104367,0.2070381194353104,0.1847507357597351,0.14486803114414215,0.14193548262119293,0.12258064746856688,0.08504398912191392,0.09618768095970154,0.1366568952798843,0.16129031777381897,0.1524926722049713,0.10967741906642912,0.12844574451446533,0.1712609976530075,0.18768328428268433,0.0,0.0,0.0,0.0,0.0,0.0,0.0,0.0,0.0,0.0,0.0,0.0,0.0,0.0,0.0,0.0,0.0,0.0,0.0,0.0,0.0,0.0,0.0,0.0,0.0,0.0,0.0,0.0,0.0,0.0,0.0,0.0,0.0,0.0,0.0,0.0,0.0,0.0,0.0,0.0,0.0,0.0,0.0,0.0,0.0,0.0,0.0,0.0,0.0,0.0,0.0,0.0,0.0,0.0,0.0,0.0,0.0,0.0,0.0,0.0,0.0,0.0,0.0,0.0,0.0,0.0,0.0,0.0,0.0,0.0,0.0,0.0,0.0,0.0,0.0,1.0
0.9472402334213258,0.5827922224998474,0.15909090638160703,0.0,0.07873376458883284,0.194399356842041,0.23823052644729611,0.2613636255264282,0.25974026322364807,0.2633928656578064,0.2719155848026276,0.2719155848026276,0.27800324559211725,0.27637988328933716,0.2824675440788269,0.2844967544078827,0.2954545319080353,0.30275973677635193,0.30925324559211725,0.3210227191448212,0.33319804072380066,0.3469967544078827,0.3607954680919647,0.3705357015132904,0.3892045319080353,0.4155844151973724,0.4423701167106629,0.4707792103290558,0.5056818127632141,0.530032455921173,0.551948070526123,0.5685876607894897,0.5848214030265808,0.5836039185523987,0.5560064911842345,0.5186688303947449,0.47930195927619934,0.43831169605255127,0.3977272808551788,0.36282467842102045,0.33319804072380066,0.31737011671066284,0.30194804072380066,0.29504871368408203,0.285308450460434,0.2804383039474488,0.2775973975658417,0.2808441519737244,0.2824675440788269,0.28409090638160706,0.29058441519737244,0.2934253215789795,0.2934253215789795,0.2938311696052551,0.2934253215789795,0.29951298236846924,0.2991071343421936,0.2934253215789795,0.2954545319080353,0.2954545319080353,0.2897727191448212,0.29099026322364807,0.2857142984867096,0.2800324559211731,0.27516233921051025,0.27069804072380066,0.2670454680919647,0.27272728085517883,0.27313312888145447,0.2767857015132904,0.2828733623027801,0.2865259647369385,0.29180195927619934,0.2901785671710968,0.2942370176315308,0.2999188303947449,0.3035714328289032,0.2999188303947449,0.30073052644729614,0.298701286315918,0.3023538887500763,0.3011363744735718,0.3023538887500763,0.30073052644729614,0.30032467842102045,0.2978896200656891,0.2946428656578064,0.2942370176315308,0.28733766078948975,0.29099026322364807,0.2824675440788269,0.2832792103290558,0.2804383039474488,0.2755681872367859,0.2775973975658417,0.288149356842041,0.285308450460434,0.2877435088157654,0.27272728085517883,0.28693181276321406,0.2844967544078827,0.2889610528945923,0.3246753215789795,0.3392857015132904,0.3291396200656891,0.30194804072380066,0.2719155848026276,0.2759740352630615,0.27150973677635193,0.2633928656578064,0.2613636255264282,0.2670454680919647,0.27313312888145447,0.27313312888145447,0.2804383039474488,0.28612011671066284,0.285308450460434,0.27800324559211725,0.2613636255264282,0.2633928656578064,0.35349026322364807,0.5357142686843872,0.7905844449996947,1.0,0.6010552048683168,0.213879868388176,0.06534090638160706,0.15016233921051023,0.2524350583553314,0.2982954680919647,0.3125,0.3214285671710968,0.3275162279605865,0.3327922224998474,0.3323863744735718,0.329951286315918,0.3344155848026276,0.336850643157959,0.3429383039474488,0.3425324559211731,0.3474026024341583,0.0,0.0,0.0,0.0,0.0,0.0,0.0,0.0,0.0,0.0,0.0,0.0,0.0,0.0,0.0,0.0,0.0,0.0,0.0,0.0,0.0,0.0,0.0,0.0,0.0,0.0,0.0,0.0,0.0,0.0,0.0,0.0,0.0,0.0,0.0,0.0,0.0,0.0,0.0,0.0,0.0,0.0,0.0,0.0,0.0,0.0,0.0
1.0,0.34113165736198425,0.02067464590072632,0.09194777160882947,0.17791077494621277,0.1936887949705124,0.23014146089553836,0.19423286616802213,0.21164308488368988,0.17138193547725675,0.22089228034019473,0.19314472377300265,0.22524483501911163,0.22306855022907257,0.1920565813779831,0.21871599555015564,0.26877039670944214,0.2437431961297989,0.24809575080871585,0.26224157214164734,0.27040261030197144,0.24918389320373532,0.2867246866226196,0.3210010826587677,0.32045701146125793,0.3340587615966797,0.33460283279418945,0.35745376348495483,0.354733407497406,0.316648542881012,0.3890098035335541,0.3764961957931519,0.3705114126205444,0.3873775899410248,0.335690975189209,0.33786725997924805,0.2910772562026977,0.27203482389450073,0.2965179681777954,0.24755167961120603,0.2464635521173477,0.2448313385248184,0.2535364627838135,0.2486398220062256,0.2198041379451752,0.2344940155744553,0.2198041379451752,0.2355821579694748,0.2600652873516083,0.23122960329055783,0.25299239158630366,0.25244832038879395,0.25299239158630366,0.2627856433391571,0.23340587317943573,0.24537540972232816,0.23177365958690643,0.2203482091426849,0.2132752984762192,0.20402611792087555,0.24428726732730863,0.20783460140228271,0.1898803114891052,0.22361262142658236,0.19151251018047327,0.21381936967372892,0.18933624029159543,0.20565833151340485,0.18117518723011017,0.20837867259979248,0.21218715608119965,0.2018498331308365,0.1659412384033203,0.1953209936618805,0.28835690021514887,0.2616975009441376,0.3063112199306488,0.32480958104133606,0.3438520133495331,0.3318824768066406,0.34439608454704285,0.31556040048599243,0.3454842269420624,0.30413493514060974,0.24319912493228912,0.17954298853874207,0.17192600667476654,0.15070728957653043,0.13438519835472107,0.13764962553977966,0.13982589542865753,0.10718172043561935,0.09140370041131972,0.12350381165742874,0.11425462365150452,0.1420021802186966,0.12187159806489944,0.11099020391702652,0.09902067482471466,0.138737753033638,0.2627856433391571,0.3770402669906616,0.5739934444427489,0.9227421283721923,0.72633296251297,0.138737753033638,0.0,0.1033732295036316,0.19423286616802213,0.18389554321765897,0.17954298853874207,0.1692056655883789,0.16539716720581055,0.1860718131065369,0.17029379308223724,0.18661588430404663,0.177366703748703,0.19477693736553192,0.1887921690940857,0.21871599555015564,0.1898803114891052,0.2198041379451752,0.24755167961120603,0.19423286616802213,0.2785636484622956,0.27638736367225647,0.2616975009441376,0.0,0.0,0.0,0.0,0.0,0.0,0.0,0.0,0.0,0.0,0.0,0.0,0.0,0.0,0.0,0.0,0.0,0.0,0.0,0.0,0.0,0.0,0.0,0.0,0.0,0.0,0.0,0.0,0.0,0.0,0.0,0.0,0.0,0.0,0.0,0.0,0.0,0.0,0.0,0.0,0.0,0.0,0.0,0.0,0.0,0.0,0.0,0.0,0.0,0.0,0.0,0.0,0.0,0.0,0.0,0.0,0.0,0.0,0.0,0.0,1.0
0.9252992272377014,0.9257119297981262,0.4482046961784362,0.15930664539337158,0.052414361387491226,0.10647957026958464,0.13413123786449432,0.1403219103813171,0.13165497779846191,0.13867107033729553,0.13743293285369873,0.14321090281009674,0.14733801782131195,0.15559224784374237,0.15229055285453796,0.15229055285453796,0.1634337604045868,0.1654973179101944,0.1749896854162216,0.18572017550468445,0.19933965802192688,0.2047049105167389,0.20965744554996488,0.2158481180667877,0.22245150804519653,0.23813454806804657,0.2591828405857086,0.27610400319099426,0.2839455306529999,0.3210895657539368,0.3433759808540344,0.36153528094291687,0.38671070337295527,0.40321916341781616,0.42302930355072016,0.43871232867240906,0.44077590107917786,0.4304580986499786,0.40280643105506897,0.3685513734817505,0.3318200707435608,0.2921997606754303,0.2529921531677246,0.2170862555503845,0.18613289296627045,0.17746594548225403,0.17457696795463562,0.1609574854373932,0.15765580534934995,0.1654973179101944,0.15889392793178558,0.15352869033813477,0.15105241537094116,0.16178292036056519,0.15022699534893036,0.167560875415802,0.1700371503829956,0.1663227379322052,0.15641766786575317,0.162608340382576,0.1749896854162216,0.1659100353717804,0.1638464778661728,0.1692117154598236,0.1696244329214096,0.1659100353717804,0.172926127910614,0.1646718978881836,0.1630210429430008,0.1613702028989792,0.1650846004486084,0.15394139289855957,0.15724308788776395,0.162608340382576,0.1650846004486084,0.15435411036014557,0.14898885786533356,0.15848122537136075,0.15765580534934995,0.15889392793178558,0.15559224784374237,0.15063969790935516,0.14816343784332275,0.15848122537136075,0.15352869033813477,0.14775072038173676,0.15806850790977478,0.15889392793178558,0.16013206541538239,0.18200577795505524,0.19686339795589447,0.24102352559566495,0.2571192681789398,0.2525794506072998,0.24226166307926175,0.24473792314529416,0.24845233559608457,0.2232769280672073,0.22699132561683652,0.18778373301029205,0.14816343784332275,0.1262897253036499,0.11886091530323029,0.1300041228532791,0.11390838027000429,0.10771770775318144,0.11267024278640748,0.11473380029201508,0.11060668528079987,0.08006603270769118,0.0,0.010317787528038023,0.1749896854162216,0.6021460890769958,0.8291374444961549,1.0,0.7115146517753601,0.23854725062847135,0.10028889775276184,0.11349566280841827,0.16013206541538239,0.1721007078886032,0.1708625704050064,0.1704498529434204,0.1733388304710388,0.1749896854162216,0.17540238797664642,0.18159306049346924,0.1919108480215073,0.1947998404502869,0.1927362829446793,0.19645068049430847,0.19851423799991608,0.22245150804519653,0.2154354155063629,0.21873709559440607,0.24432522058486936,0.24927775561809537,0.0,0.0,0.0,0.0,0.0,0.0,0.0,0.0,0.0,0.0,0.0,0.0,0.0,0.0,0.0,0.0,0.0,0.0,0.0,0.0,0.0,0.0,0.0,0.0,0.0,0.0,0.0,0.0,0.0,0.0,0.0,0.0,0.0,0.0,0.0,0.0,0.0,0.0,0.0,0.0,0.0,0.0,0.0,0.0,0.0,0.0,0.0,0.0,0.0,0.0
1.0,0.7431246638298034,0.2896430790424347,0.05617320165038109,0.159157395362854,0.23815096914768216,0.3452311158180237,0.3136337101459503,0.3288472890853882,0.34406086802482605,0.3066120445728302,0.3616149723529816,0.339379757642746,0.3651258051395416,0.3622001111507416,0.3229959011077881,0.3856056034564972,0.3686366379261017,0.38326507806777954,0.3686366379261017,0.33235809206962585,0.3768285512924194,0.34815680980682373,0.3733177185058594,0.37858396768569946,0.33703920245170593,0.3949678242206573,0.3844353556632996,0.422469288110733,0.4499707520008087,0.4324166178703308,0.5301345586776732,0.5324751138687134,0.5740199089050293,0.6056173443794249,0.5751901865005493,0.637214720249176,0.5775307416915894,0.5634874105453491,0.523112952709198,0.4505558907985687,0.4751316606998444,0.4148624837398529,0.4037448763847351,0.3908718526363373,0.34406086802482605,0.3891164362430573,0.35400819778442383,0.3622001111507416,0.35459333658218384,0.32182562351226807,0.37799882888793945,0.3499122262001037,0.3452311158180237,0.34347572922706604,0.3001755475997925,0.35985955595970154,0.33762434124946594,0.341135174036026,0.3306027054786682,0.30895259976387024,0.342305451631546,0.32182562351226807,0.319485068321228,0.32650673389434814,0.30485662817955017,0.3306027054786682,0.3136337101459503,0.30953773856163025,0.32592159509658813,0.30485662817955017,0.3698069155216217,0.34815680980682373,0.38970157504081726,0.4014043211936951,0.3680514991283417,0.42773550748825073,0.4347571730613709,0.44763019680976873,0.4341720342636108,0.38970157504081726,0.4066705703735352,0.35517847537994385,0.3581041693687439,0.32007020711898804,0.2849619686603546,0.3001755475997925,0.27559977769851685,0.28028085827827454,0.2908133268356323,0.2650672793388366,0.3013458251953125,0.28788766264915466,0.4113516807556152,0.48098301887512207,0.6553540229797363,0.9736688137054444,0.8695143461227418,0.4950263202190399,0.12697483599185944,0.0,0.19719134271144864,0.2715038061141968,0.30368638038635254,0.3077823221683502,0.2732592225074768,0.3118782937526703,0.29900527000427246,0.317729651927948,0.3224107623100281,0.2908133268356323,0.33820948004722595,0.32065534591674805,0.33235809206962585,0.339379757642746,0.2943241596221924,0.0,0.0,0.0,0.0,0.0,0.0,0.0,0.0,0.0,0.0,0.0,0.0,0.0,0.0,0.0,0.0,0.0,0.0,0.0,0.0,0.0,0.0,0.0,0.0,0.0,0.0,0.0,0.0,0.0,0.0,0.0,0.0,0.0,0.0,0.0,0.0,0.0,0.0,0.0,0.0,0.0,0.0,0.0,0.0,0.0,0.0,0.0,0.0,0.0,0.0,0.0,0.0,0.0,0.0,0.0,0.0,0.0,0.0,0.0,0.0,0.0,0.0,0.0,0.0,0.0,0.0,0.0,0.0,0.0,0.0,0.0,1.0
0.9857767820358275,0.9142961502075196,0.720641851425171,0.5196936726570128,0.34427425265312195,0.2213712632656097,0.10904449224472045,0.09700947999954224,0.09992706030607224,0.10175054520368576,0.09299781173467635,0.090809628367424,0.08388037979602812,0.08643326163291931,0.08679796010255812,0.08460977673530577,0.07075127959251404,0.060904450714588165,0.04777534678578377,0.02735229767858982,0.030999271199107167,0.01932895742356777,0.013493800535798073,0.017870167270302773,0.0,0.033552151173353195,0.05689277872443199,0.06309263408184052,0.09810357540845872,0.09773887693881987,0.15973742306232452,0.15025529265403748,0.19401895999908447,0.18016046285629272,0.195842444896698,0.20933625102043152,0.2115244418382645,0.2064186781644821,0.20605397224426267,0.1962071508169174,0.207512766122818,0.19766594469547272,0.18599562346935272,0.18636031448841092,0.19037199020385745,0.17505469918251035,0.17432531714439392,0.16703136265277863,0.16994893550872803,0.16010211408138275,0.1681254506111145,0.16447848081588745,0.15754923224449155,0.15390226244926453,0.1506199836730957,0.16301968693733215,0.15827862918376923,0.16703136265277863,0.18453682959079745,0.19803063571453092,0.213347926735878,0.22465354204177856,0.2213712632656097,0.2137126177549362,0.213347926735878,0.19876003265380857,0.17760758101940155,0.18927790224552157,0.19292487204074857,0.16338439285755155,0.18526622653007507,0.17797228693962097,0.15973742306232452,0.16229030489921567,0.15134938061237335,0.16703136265277863,0.16010211408138275,0.1695842444896698,0.17140772938728333,0.1666666716337204,0.17760758101940155,0.18380743265151975,0.1947483569383621,0.2272064238786697,0.21115973591804504,0.2407002151012421,0.28446388244628906,0.3537563681602478,0.50510573387146,0.6768782138824463,0.9142961502075196,1.0,0.8636032342910767,0.6305616497993469,0.45113056898117065,0.3110868036746979,0.18526622653007507,0.11232677102088928,0.11013858765363692,0.11342085897922516,0.11779722571372984,0.12618526816368103,0.12764406204223633,0.12800875306129456,0.1199854090809822,0.12071480602025984,0.09773887693881987,0.10466812551021576,0.10576222091913225,0.0,0.0,0.0,0.0,0.0,0.0,0.0,0.0,0.0,0.0,0.0,0.0,0.0,0.0,0.0,0.0,0.0,0.0,0.0,0.0,0.0,0.0,0.0,0.0,0.0,0.0,0.0,0.0,0.0,0.0,0.0,0.0,0.0,0.0,0.0,0.0,0.0,0.0,0.0,0.0,0.0,0.0,0.0,0.0,0.0,0.0,0.0,0.0,0.0,0.0,0.0,0.0,0.0,0.0,0.0,0.0,0.0,0.0,0.0,0.0,0.0,0.0,0.0,0.0,0.0,0.0,0.0,0.0,0.0,0.0,0.0,0.0,0.0,0.0,0.0,0.0,0.0,0.0,1.0
